Filename	2-nitrophenol
Instrument name	DSC2A-00807 (172.23.165.2)
Operator	
rundate	5/21/2019
Sample name	2-nitrophenol
proceduresegments	Ramp 10 °C/min to 60.00 °C
[step]
Ramp 10 °C/min to 60.00 °C
Time	Temperature	Heat Flow (Normalized)
min	°C	W/g
0.00000		
1.66667e-3		
3.33333e-3		
5.00000e-3		
6.66667e-3		
8.33333e-3	30.172	
0.0100000	30.176	
0.0116667	30.180	
0.0133333	30.184	
0.0150000	30.189	
0.0166667	30.192	
0.0183333	30.195	
0.0200000	30.198	
0.0216667	30.202	
0.0233333	30.207	
0.0250000	30.210	
0.0266667	30.214	
0.0283333	30.218	
0.0300000	30.222	
0.0316667	30.225	
0.0333333	30.230	
0.0350000	30.233	
0.0366667	30.238	
0.0383333	30.241	
0.0400000	30.244	
0.0416667	30.248	
0.0433333	30.253	
0.0450000	30.257	
0.0466667	30.262	
0.0483333	30.267	
0.0500000	30.271	
0.0516667	30.276	
0.0533333	30.279	
0.0550000	30.283	
0.0566667	30.289	
0.0583333	30.294	-0.237671
0.0600000	30.299	-0.237595
0.0616667	30.304	-0.237040
0.0633333	30.310	-0.235674
0.0650000	30.315	-0.233258
0.0666667	30.320	-0.230230
0.0683333	30.327	-0.227538
0.0700000	30.333	-0.225473
0.0716667	30.339	-0.223768
0.0733333	30.345	-0.222177
0.0750000	30.351	-0.220781
0.0766667	30.358	-0.219460
0.0783333	30.366	-0.218219
0.0800000	30.371	-0.216843
0.0816667	30.379	-0.215725
0.0833333	30.386	-0.214735
0.0850000	30.394	-0.213803
0.0866667	30.401	-0.212917
0.0883333	30.408	-0.211960
0.0900000	30.417	-0.211110
0.0916667	30.424	-0.210332
0.0933333	30.433	-0.209435
0.0950000	30.440	-0.208511
0.0966667	30.449	-0.207714
0.0983333	30.458	-0.207023
0.100000	30.468	-0.206494
0.101667	30.478	-0.206172
0.103333	30.486	-0.205968
0.105000	30.496	-0.205769
0.106667	30.506	-0.205450
0.108333	30.515	-0.205289
0.110000	30.525	-0.205007
0.111667	30.535	-0.204530
0.113333	30.545	-0.204129
0.115000	30.555	-0.203687
0.116667	30.565	-0.203249
0.118333	30.576	-0.202915
0.120000	30.586	-0.202737
0.121667	30.598	-0.202854
0.123333	30.609	-0.203042
0.125000	30.619	-0.203271
0.126667	30.631	-0.203101
0.128333	30.642	-0.202967
0.130000	30.654	-0.202795
0.131667	30.665	-0.202709
0.133333	30.676	-0.202645
0.135000	30.688	-0.202698
0.136667	30.699	-0.202677
0.138333	30.710	-0.202684
0.140000	30.723	-0.202633
0.141667	30.735	-0.202500
0.143333	30.747	-0.202409
0.145000	30.759	-0.202379
0.146667	30.771	-0.202322
0.148333	30.784	-0.202255
0.150000	30.797	-0.202208
0.151667	30.809	-0.202151
0.153333	30.821	-0.202161
0.155000	30.834	-0.202171
0.156667	30.845	-0.202196
0.158333	30.858	-0.202231
0.160000	30.870	-0.202246
0.161667	30.883	-0.202248
0.163333	30.896	-0.202239
0.165000	30.909	-0.202220
0.166667	30.922	-0.202195
0.168333	30.934	-0.202173
0.170000	30.947	-0.202150
0.171667	30.960	-0.202144
0.173333	30.973	-0.202148
0.175000	30.985	-0.202272
0.176667	30.998	-0.202348
0.178333	31.011	-0.202412
0.180000	31.024	-0.202467
0.181667	31.038	-0.202504
0.183333	31.051	-0.202513
0.185000	31.063	-0.202518
0.186667	31.077	-0.202517
0.188333	31.090	-0.202514
0.190000	31.103	-0.202504
0.191667	31.117	-0.202495
0.193333	31.129	-0.202487
0.195000	31.142	-0.202465
0.196667	31.155	-0.202434
0.198333	31.169	-0.202412
0.200000	31.182	-0.202403
0.201667	31.196	-0.202398
0.203333	31.209	-0.202392
0.205000	31.222	-0.202420
0.206667	31.236	-0.202447
0.208333	31.251	-0.202468
0.210000	31.264	-0.202499
0.211667	31.277	-0.202531
0.213333	31.291	-0.202547
0.215000	31.304	-0.202565
0.216667	31.318	-0.202590
0.218333	31.332	-0.202617
0.220000	31.344	-0.202657
0.221667	31.358	-0.202700
0.223333	31.372	-0.202778
0.225000	31.386	-0.202843
0.226667	31.400	-0.202876
0.228333	31.413	-0.202911
0.230000	31.428	-0.202955
0.231667	31.442	-0.202991
0.233333	31.457	-0.203023
0.235000	31.471	-0.203056
0.236667	31.484	-0.203079
0.238333	31.498	-0.203104
0.240000	31.512	-0.203134
0.241667	31.525	-0.203179
0.243333	31.540	-0.203230
0.245000	31.554	-0.203297
0.246667	31.568	-0.203392
0.248333	31.582	-0.203511
0.250000	31.596	-0.203685
0.251667	31.610	-0.203918
0.253333	31.624	-0.204129
0.255000	31.638	-0.204268
0.256667	31.653	-0.204366
0.258333	31.667	-0.204487
0.260000	31.681	-0.204644
0.261667	31.696	-0.204777
0.263333	31.709	-0.204943
0.265000	31.726	-0.205129
0.266667	31.739	-0.205346
0.268333	31.755	-0.205590
0.270000	31.769	-0.205836
0.271667	31.783	-0.206132
0.273333	31.798	-0.206402
0.275000	31.813	-0.206652
0.276667	31.827	-0.207007
0.278333	31.841	-0.207565
0.280000	31.856	-0.208221
0.281667	31.871	-0.208898
0.283333	31.886	-0.209458
0.285000	31.901	-0.209887
0.286667	31.916	-0.210114
0.288333	31.930	-0.210270
0.290000	31.945	-0.210396
0.291667	31.960	-0.210466
0.293333	31.975	-0.210523
0.295000	31.989	-0.210599
0.296667	32.004	-0.210767
0.298333	32.020	-0.211035
0.300000	32.034	-0.211343
0.301667	32.049	-0.211658
0.303333	32.065	-0.212017
0.305000	32.080	-0.212369
0.306667	32.094	-0.212793
0.308333	32.110	-0.213196
0.310000	32.125	-0.213554
0.311667	32.141	-0.213747
0.313333	32.155	-0.213855
0.315000	32.170	-0.213934
0.316667	32.186	-0.213975
0.318333	32.200	-0.214000
0.320000	32.215	-0.214029
0.321667	32.230	-0.214042
0.323333	32.246	-0.214055
0.325000	32.261	-0.214063
0.326667	32.276	-0.214088
0.328333	32.291	-0.214123
0.330000	32.306	-0.214200
0.331667	32.322	-0.214307
0.333333	32.336	-0.214487
0.335000	32.352	-0.214661
0.336667	32.367	-0.214802
0.338333	32.382	-0.214964
0.340000	32.398	-0.215113
0.341667	32.414	-0.215261
0.343333	32.428	-0.215334
0.345000	32.444	-0.215379
0.346667	32.460	-0.215392
0.348333	32.475	-0.215400
0.350000	32.490	-0.215410
0.351667	32.506	-0.215418
0.353333	32.522	-0.215428
0.355000	32.537	-0.215437
0.356667	32.553	-0.215449
0.358333	32.567	-0.215462
0.360000	32.585	-0.215480
0.361667	32.600	-0.215492
0.363333	32.615	-0.215503
0.365000	32.630	-0.215507
0.366667	32.646	-0.215517
0.368333	32.661	-0.215519
0.370000	32.677	-0.215519
0.371667	32.693	-0.215515
0.373333	32.707	-0.215512
0.375000	32.722	-0.215511
0.376667	32.740	-0.215511
0.378333	32.754	-0.215513
0.380000	32.770	-0.215515
0.381667	32.785	-0.215516
0.383333	32.801	-0.215518
0.385000	32.816	-0.215519
0.386667	32.832	-0.215517
0.388333	32.847	-0.215515
0.390000	32.864	-0.215513
0.391667	32.880	-0.215510
0.393333	32.896	-0.215508
0.395000	32.911	-0.215508
0.396667	32.927	-0.215510
0.398333	32.943	-0.215511
0.400000	32.959	-0.215514
0.401667	32.974	-0.215516
0.403333	32.990	-0.215515
0.405000	33.005	-0.215515
0.406667	33.022	-0.215516
0.408333	33.037	-0.215517
0.410000	33.053	-0.215520
0.411667	33.069	-0.215522
0.413333	33.085	-0.215525
0.415000	33.100	-0.215528
0.416667	33.116	-0.215531
0.418333	33.132	-0.215537
0.420000	33.150	-0.215547
0.421667	33.164	-0.215557
0.423333	33.179	-0.215568
0.425000	33.195	-0.215591
0.426667	33.210	-0.215621
0.428333	33.227	-0.215673
0.430000	33.243	-0.215739
0.431667	33.259	-0.215801
0.433333	33.275	-0.215840
0.435000	33.291	-0.215870
0.436667	33.308	-0.215900
0.438333	33.323	-0.215943
0.440000	33.339	-0.215969
0.441667	33.355	-0.215997
0.443333	33.371	-0.216018
0.445000	33.387	-0.216034
0.446667	33.403	-0.216056
0.448333	33.419	-0.216087
0.450000	33.435	-0.216122
0.451667	33.451	-0.216166
0.453333	33.467	-0.216234
0.455000	33.483	-0.216292
0.456667	33.499	-0.216323
0.458333	33.515	-0.216362
0.460000	33.532	-0.216410
0.461667	33.547	-0.216452
0.463333	33.563	-0.216488
0.465000	33.579	-0.216527
0.466667	33.595	-0.216575
0.468333	33.611	-0.216626
0.470000	33.628	-0.216676
0.471667	33.643	-0.216752
0.473333	33.660	-0.216815
0.475000	33.676	-0.216848
0.476667	33.691	-0.216863
0.478333	33.707	-0.216882
0.480000	33.723	-0.216906
0.481667	33.739	-0.216945
0.483333	33.755	-0.217005
0.485000	33.772	-0.217075
0.486667	33.789	-0.217164
0.488333	33.805	-0.217271
0.490000	33.820	-0.217406
0.491667	33.837	-0.217484
0.493333	33.853	-0.217518
0.495000	33.868	-0.217549
0.496667	33.885	-0.217572
0.498333	33.901	-0.217610
0.500000	33.917	-0.217677
0.501667	33.933	-0.217753
0.503333	33.948	-0.217830
0.505000	33.965	-0.217943
0.506667	33.983	-0.218051
0.508333	33.998	-0.218163
0.510000	34.014	-0.218225
0.511667	34.031	-0.218261
0.513333	34.047	-0.218296
0.515000	34.062	-0.218323
0.516667	34.079	-0.218344
0.518333	34.095	-0.218366
0.520000	34.112	-0.218384
0.521667	34.127	-0.218417
0.523333	34.144	-0.218448
0.525000	34.159	-0.218483
0.526667	34.176	-0.218531
0.528333	34.192	-0.218576
0.530000	34.209	-0.218610
0.531667	34.224	-0.218629
0.533333	34.241	-0.218648
0.535000	34.257	-0.218667
0.536667	34.273	-0.218703
0.538333	34.290	-0.218764
0.540000	34.305	-0.218815
0.541667	34.322	-0.218856
0.543333	34.338	-0.218901
0.545000	34.354	-0.218994
0.546667	34.370	-0.219153
0.548333	34.387	-0.219330
0.550000	34.402	-0.219422
0.551667	34.420	-0.219474
0.553333	34.436	-0.219513
0.555000	34.452	-0.219554
0.556667	34.469	-0.219659
0.558333	34.484	-0.219741
0.560000	34.500	-0.219819
0.561667	34.516	-0.219880
0.563333	34.533	-0.219973
0.565000	34.550	-0.220071
0.566667	34.565	-0.220190
0.568333	34.582	-0.220345
0.570000	34.598	-0.220494
0.571667	34.615	-0.220607
0.573333	34.632	-0.220719
0.575000	34.648	-0.220838
0.576667	34.664	-0.220978
0.578333	34.681	-0.221076
0.580000	34.696	-0.221143
0.581667	34.713	-0.221278
0.583333	34.729	-0.221365
0.585000	34.745	-0.221426
0.586667	34.762	-0.221490
0.588333	34.778	-0.221531
0.590000	34.795	-0.221560
0.591667	34.812	-0.221585
0.593333	34.827	-0.221610
0.595000	34.845	-0.221669
0.596667	34.860	-0.221717
0.598333	34.877	-0.221747
0.600000	34.892	-0.221839
0.601667	34.909	-0.221959
0.603333	34.925	-0.222064
0.605000	34.941	-0.222238
0.606667	34.957	-0.222454
0.608333	34.975	-0.222602
0.610000	34.991	-0.222703
0.611667	35.007	-0.222785
0.613333	35.023	-0.222846
0.615000	35.039	-0.222893
0.616667	35.056	-0.222934
0.618333	35.073	-0.222986
0.620000	35.089	-0.223029
0.621667	35.106	-0.223072
0.623333	35.122	-0.223159
0.625000	35.138	-0.223286
0.626667	35.153	-0.223401
0.628333	35.170	-0.223500
0.630000	35.186	-0.223595
0.631667	35.203	-0.223710
0.633333	35.220	-0.223818
0.635000	35.236	-0.223967
0.636667	35.252	-0.224120
0.638333	35.269	-0.224274
0.640000	35.286	-0.224425
0.641667	35.302	-0.224643
0.643333	35.318	-0.224804
0.645000	35.335	-0.224935
0.646667	35.351	-0.225052
0.648333	35.367	-0.225157
0.650000	35.384	-0.225229
0.651667	35.400	-0.225262
0.653333	35.416	-0.225284
0.655000	35.432	-0.225304
0.656667	35.450	-0.225321
0.658333	35.466	-0.225343
0.660000	35.482	-0.225369
0.661667	35.499	-0.225392
0.663333	35.516	-0.225445
0.665000	35.531	-0.225540
0.666667	35.548	-0.225660
0.668333	35.564	-0.225761
0.670000	35.581	-0.225836
0.671667	35.596	-0.225901
0.673333	35.613	-0.225986
0.675000	35.629	-0.226100
0.676667	35.646	-0.226234
0.678333	35.663	-0.226354
0.680000	35.679	-0.226452
0.681667	35.695	-0.226532
0.683333	35.711	-0.226643
0.685000	35.729	-0.226768
0.686667	35.745	-0.226844
0.688333	35.761	-0.226910
0.690000	35.778	-0.226961
0.691667	35.793	-0.227032
0.693333	35.810	-0.227119
0.695000	35.827	-0.227186
0.696667	35.842	-0.227256
0.698333	35.860	-0.227297
0.700000	35.877	-0.227380
0.701667	35.893	-0.227444
0.703333	35.909	-0.227469
0.705000	35.926	-0.227515
0.706667	35.943	-0.227594
0.708333	35.958	-0.227678
0.710000	35.975	-0.227775
0.711667	35.991	-0.227909
0.713333	36.007	-0.228122
0.715000	36.023	-0.228346
0.716667	36.040	-0.228493
0.718333	36.057	-0.228558
0.720000	36.073	-0.228612
0.721667	36.089	-0.228667
0.723333	36.106	-0.228708
0.725000	36.123	-0.228788
0.726667	36.140	-0.228865
0.728333	36.156	-0.228953
0.730000	36.173	-0.229052
0.731667	36.189	-0.229167
0.733333	36.206	-0.229273
0.735000	36.221	-0.229328
0.736667	36.238	-0.229357
0.738333	36.255	-0.229374
0.740000	36.271	-0.229391
0.741667	36.288	-0.229408
0.743333	36.306	-0.229428
0.745000	36.320	-0.229460
0.746667	36.336	-0.229488
0.748333	36.354	-0.229541
0.750000	36.369	-0.229618
0.751667	36.387	-0.229737
0.753333	36.402	-0.229826
0.755000	36.420	-0.229917
0.756667	36.436	-0.229997
0.758333	36.453	-0.230045
0.760000	36.469	-0.230089
0.761667	36.485	-0.230148
0.763333	36.502	-0.230222
0.765000	36.518	-0.230288
0.766667	36.535	-0.230388
0.768333	36.552	-0.230481
0.770000	36.568	-0.230609
0.771667	36.585	-0.230737
0.773333	36.601	-0.230882
0.775000	36.618	-0.230997
0.776667	36.635	-0.231062
0.778333	36.651	-0.231123
0.780000	36.668	-0.231176
0.781667	36.684	-0.231225
0.783333	36.700	-0.231281
0.785000	36.717	-0.231352
0.786667	36.733	-0.231435
0.788333	36.750	-0.231567
0.790000	36.766	-0.231715
0.791667	36.783	-0.231899
0.793333	36.799	-0.232118
0.795000	36.816	-0.232287
0.796667	36.832	-0.232448
0.798333	36.848	-0.232604
0.800000	36.866	-0.232767
0.801667	36.883	-0.232950
0.803333	36.899	-0.233147
0.805000	36.915	-0.233341
0.806667	36.931	-0.233495
0.808333	36.948	-0.233600
0.810000	36.965	-0.233668
0.811667	36.981	-0.233731
0.813333	36.997	-0.233814
0.815000	37.015	-0.233874
0.816667	37.030	-0.233924
0.818333	37.048	-0.234014
0.820000	37.064	-0.234093
0.821667	37.080	-0.234203
0.823333	37.098	-0.234314
0.825000	37.113	-0.234400
0.826667	37.129	-0.234491
0.828333	37.147	-0.234575
0.830000	37.163	-0.234647
0.831667	37.179	-0.234744
0.833333	37.196	-0.234886
0.835000	37.212	-0.234982
0.836667	37.229	-0.235080
0.838333	37.245	-0.235234
0.840000	37.262	-0.235430
0.841667	37.279	-0.235605
0.843333	37.295	-0.235770
0.845000	37.312	-0.235947
0.846667	37.329	-0.236175
0.848333	37.345	-0.236339
0.850000	37.362	-0.236474
0.851667	37.378	-0.236538
0.853333	37.394	-0.236564
0.855000	37.411	-0.236639
0.856667	37.426	-0.236655
0.858333	37.444	-0.236676
0.860000	37.460	-0.236692
0.861667	37.477	-0.236728
0.863333	37.493	-0.236801
0.865000	37.510	-0.236985
0.866667	37.526	-0.237263
0.868333	37.543	-0.237592
0.870000	37.559	-0.237841
0.871667	37.577	-0.238025
0.873333	37.593	-0.238179
0.875000	37.610	-0.238385
0.876667	37.627	-0.238610
0.878333	37.642	-0.238876
0.880000	37.659	-0.239080
0.881667	37.676	-0.239269
0.883333	37.692	-0.239426
0.885000	37.708	-0.239606
0.886667	37.725	-0.239775
0.888333	37.743	-0.239893
0.890000	37.758	-0.239954
0.891667	37.776	-0.239986
0.893333	37.791	-0.240004
0.895000	37.808	-0.240031
0.896667	37.825	-0.240094
0.898333	37.841	-0.240154
0.900000	37.858	-0.240212
0.901667	37.874	-0.240306
0.903333	37.891	-0.240452
0.905000	37.907	-0.240715
0.906667	37.923	-0.240945
0.908333	37.941	-0.241183
0.910000	37.957	-0.241301
0.911667	37.974	-0.241364
0.913333	37.991	-0.241436
0.915000	38.008	-0.241548
0.916667	38.023	-0.241678
0.918333	38.040	-0.241882
0.920000	38.057	-0.242081
0.921667	38.073	-0.242278
0.923333	38.089	-0.242570
0.925000	38.106	-0.242888
0.926667	38.122	-0.243149
0.928333	38.139	-0.243323
0.930000	38.156	-0.243442
0.931667	38.172	-0.243562
0.933333	38.190	-0.243661
0.935000	38.206	-0.243749
0.936667	38.223	-0.243829
0.938333	38.239	-0.243937
0.940000	38.255	-0.244001
0.941667	38.272	-0.244086
0.943333	38.289	-0.244190
0.945000	38.305	-0.244274
0.946667	38.322	-0.244391
0.948333	38.338	-0.244506
0.950000	38.355	-0.244653
0.951667	38.371	-0.244755
0.953333	38.388	-0.244866
0.955000	38.404	-0.245013
0.956667	38.421	-0.245218
0.958333	38.437	-0.245398
0.960000	38.455	-0.245578
0.961667	38.471	-0.245736
0.963333	38.487	-0.245895
0.965000	38.503	-0.246090
0.966667	38.521	-0.246420
0.968333	38.537	-0.246810
0.970000	38.553	-0.247053
0.971667	38.570	-0.247318
0.973333	38.586	-0.247641
0.975000	38.603	-0.247937
0.976667	38.620	-0.248229
0.978333	38.636	-0.248519
0.980000	38.653	-0.248794
0.981667	38.669	-0.249008
0.983333	38.686	-0.249173
0.985000	38.702	-0.249440
0.986667	38.720	-0.249789
0.988333	38.736	-0.250093
0.990000	38.752	-0.250400
0.991667	38.770	-0.250663
0.993333	38.786	-0.250977
0.995000	38.802	-0.251233
0.996667	38.819	-0.251462
0.998333	38.836	-0.251703
1.00000	38.853	-0.251980
1.00167	38.868	-0.252296
1.00333	38.886	-0.252587
1.00500	38.902	-0.252890
1.00667	38.919	-0.253112
1.00833	38.934	-0.253349
1.01000	38.951	-0.253496
1.01167	38.968	-0.253580
1.01333	38.984	-0.253624
1.01500	39.001	-0.253640
1.01667	39.018	-0.253640
1.01833	39.034	-0.253642
1.02000	39.050	-0.253668
1.02167	39.067	-0.253725
1.02333	39.084	-0.253880
1.02500	39.101	-0.254117
1.02667	39.117	-0.254467
1.02833	39.134	-0.254909
1.03000	39.150	-0.255418
1.03167	39.168	-0.255813
1.03333	39.184	-0.256059
1.03500	39.200	-0.256241
1.03667	39.217	-0.256363
1.03833	39.233	-0.256463
1.04000	39.250	-0.256532
1.04167	39.267	-0.256659
1.04333	39.283	-0.256756
1.04500	39.300	-0.256912
1.04667	39.317	-0.257012
1.04833	39.334	-0.257121
1.05000	39.350	-0.257284
1.05167	39.366	-0.257477
1.05333	39.383	-0.257676
1.05500	39.399	-0.257892
1.05667	39.415	-0.258048
1.05833	39.433	-0.258215
1.06000	39.449	-0.258452
1.06167	39.466	-0.258674
1.06333	39.482	-0.258914
1.06500	39.498	-0.259078
1.06667	39.514	-0.259176
1.06833	39.532	-0.259280
1.07000	39.549	-0.259438
1.07167	39.565	-0.259613
1.07333	39.582	-0.259796
1.07500	39.599	-0.259973
1.07667	39.615	-0.260161
1.07833	39.632	-0.260446
1.08000	39.649	-0.260742
1.08167	39.664	-0.260943
1.08333	39.681	-0.261074
1.08500	39.697	-0.261166
1.08667	39.715	-0.261217
1.08833	39.731	-0.261325
1.09000	39.748	-0.261479
1.09167	39.764	-0.261621
1.09333	39.781	-0.261745
1.09500	39.798	-0.261920
1.09667	39.815	-0.262173
1.09833	39.832	-0.262393
1.10000	39.848	-0.262603
1.10167	39.864	-0.262759
1.10333	39.880	-0.262935
1.10500	39.897	-0.263031
1.10667	39.913	-0.263102
1.10833	39.930	-0.263172
1.11000	39.947	-0.263251
1.11167	39.964	-0.263326
1.11333	39.981	-0.263458
1.11500	39.997	-0.263594
1.11667	40.014	-0.263755
1.11833	40.031	-0.263862
1.12000	40.046	-0.263953
1.12167	40.063	-0.264075
1.12333	40.080	-0.264248
1.12500	40.096	-0.264375
1.12667	40.112	-0.264512
1.12833	40.129	-0.264696
1.13000	40.146	-0.264926
1.13167	40.163	-0.265121
1.13333	40.179	-0.265343
1.13500	40.195	-0.265564
1.13667	40.212	-0.265712
1.13833	40.228	-0.265872
1.14000	40.246	-0.266037
1.14167	40.262	-0.266158
1.14333	40.278	-0.266305
1.14500	40.295	-0.266446
1.14667	40.311	-0.266568
1.14833	40.328	-0.266695
1.15000	40.345	-0.266794
1.15167	40.361	-0.266901
1.15333	40.379	-0.266976
1.15500	40.395	-0.267013
1.15667	40.411	-0.267120
1.15833	40.428	-0.267260
1.16000	40.444	-0.267382
1.16167	40.462	-0.267577
1.16333	40.478	-0.267844
1.16500	40.495	-0.268093
1.16667	40.511	-0.268360
1.16833	40.528	-0.268604
1.17000	40.544	-0.268829
1.17167	40.561	-0.268947
1.17333	40.577	-0.269020
1.17500	40.594	-0.269128
1.17667	40.611	-0.269253
1.17833	40.628	-0.269339
1.18000	40.644	-0.269447
1.18167	40.660	-0.269623
1.18333	40.677	-0.269900
1.18500	40.694	-0.270158
1.18667	40.711	-0.270396
1.18833	40.727	-0.270710
1.19000	40.744	-0.270926
1.19167	40.759	-0.271139
1.19333	40.775	-0.271320
1.19500	40.793	-0.271465
1.19667	40.810	-0.271585
1.19833	40.827	-0.271678
1.20000	40.842	-0.271751
1.20167	40.859	-0.271871
1.20333	40.876	-0.272012
1.20500	40.892	-0.272180
1.20667	40.909	-0.272416
1.20833	40.927	-0.272599
1.21000	40.944	-0.272760
1.21167	40.959	-0.272915
1.21333	40.976	-0.273075
1.21500	40.994	-0.273218
1.21667	41.010	-0.273386
1.21833	41.026	-0.273587
1.22000	41.042	-0.273863
1.22167	41.058	-0.274163
1.22333	41.075	-0.274589
1.22500	41.092	-0.275089
1.22667	41.107	-0.275616
1.22833	41.125	-0.276223
1.23000	41.141	-0.276789
1.23167	41.158	-0.277272
1.23333	41.173	-0.277537
1.23500	41.191	-0.277804
1.23667	41.207	-0.278053
1.23833	41.224	-0.278280
1.24000	41.240	-0.278500
1.24167	41.257	-0.278774
1.24333	41.274	-0.279014
1.24500	41.290	-0.279333
1.24667	41.307	-0.279732
1.24833	41.323	-0.280174
1.25000	41.340	-0.280534
1.25167	41.357	-0.280833
1.25333	41.373	-0.281109
1.25500	41.390	-0.281313
1.25667	41.406	-0.281480
1.25833	41.424	-0.281539
1.26000	41.439	-0.281579
1.26167	41.456	-0.281673
1.26333	41.474	-0.281867
1.26500	41.489	-0.282074
1.26667	41.505	-0.282456
1.26833	41.521	-0.282790
1.27000	41.538	-0.283171
1.27167	41.555	-0.283578
1.27333	41.572	-0.284102
1.27500	41.587	-0.284521
1.27667	41.605	-0.284756
1.27833	41.622	-0.284930
1.28000	41.638	-0.285235
1.28167	41.654	-0.285668
1.28333	41.671	-0.285990
1.28500	41.688	-0.286431
1.28667	41.704	-0.286956
1.28833	41.721	-0.287705
1.29000	41.737	-0.288474
1.29167	41.753	-0.289476
1.29333	41.770	-0.290161
1.29500	41.787	-0.290481
1.29667	41.804	-0.290736
1.29833	41.819	-0.291172
1.30000	41.837	-0.291511
1.30167	41.853	-0.291667
1.30333	41.870	-0.291872
1.30500	41.885	-0.292073
1.30667	41.902	-0.292397
1.30833	41.919	-0.292786
1.31000	41.936	-0.293570
1.31167	41.952	-0.294316
1.31333	41.968	-0.295152
1.31500	41.985	-0.295689
1.31667	42.001	-0.296458
1.31833	42.018	-0.297449
1.32000	42.034	-0.298286
1.32167	42.050	-0.299251
1.32333	42.066	-0.299757
1.32500	42.083	-0.300149
1.32667	42.099	-0.300468
1.32833	42.115	-0.301120
1.33000	42.133	-0.301790
1.33167	42.148	-0.302284
1.33333	42.164	-0.302767
1.33500	42.181	-0.303404
1.33667	42.198	-0.304183
1.33833	42.213	-0.305083
1.34000	42.230	-0.306271
1.34167	42.246	-0.306825
1.34333	42.262	-0.307560
1.34500	42.278	-0.308161
1.34667	42.296	-0.309054
1.34833	42.312	-0.309887
1.35000	42.328	-0.310611
1.35167	42.345	-0.311722
1.35333	42.360	-0.313072
1.35500	42.377	-0.314263
1.35667	42.393	-0.315468
1.35833	42.411	-0.316554
1.36000	42.427	-0.317181
1.36167	42.444	-0.318235
1.36333	42.459	-0.319474
1.36500	42.476	-0.320633
1.36667	42.493	-0.321768
1.36833	42.509	-0.322823
1.37000	42.526	-0.323589
1.37167	42.541	-0.324580
1.37333	42.557	-0.325617
1.37500	42.573	-0.326961
1.37667	42.590	-0.328169
1.37833	42.606	-0.329363
1.38000	42.623	-0.330801
1.38167	42.639	-0.332402
1.38333	42.655	-0.334011
1.38500	42.671	-0.335634
1.38667	42.687	-0.337175
1.38833	42.703	-0.338748
1.39000	42.719	-0.340234
1.39167	42.736	-0.341854
1.39333	42.752	-0.343234
1.39500	42.767	-0.344947
1.39667	42.784	-0.346925
1.39833	42.801	-0.348753
1.40000	42.817	-0.350681
1.40167	42.832	-0.352594
1.40333	42.848	-0.354434
1.40500	42.865	-0.356402
1.40667	42.881	-0.358787
1.40833	42.897	-0.361098
1.41000	42.913	-0.363430
1.41167	42.930	-0.365730
1.41333	42.945	-0.368265
1.41500	42.961	-0.370906
1.41667	42.976	-0.373498
1.41833	42.991	-0.375841
1.42000	43.008	-0.378068
1.42167	43.024	-0.380494
1.42333	43.040	-0.383194
1.42500	43.055	-0.385730
1.42667	43.071	-0.388094
1.42833	43.087	-0.390643
1.43000	43.103	-0.393372
1.43167	43.118	-0.396249
1.43333	43.134	-0.398912
1.43500	43.149	-0.401663
1.43667	43.165	-0.404763
1.43833	43.180	-0.407774
1.44000	43.197	-0.410823
1.44167	43.212	-0.414160
1.44333	43.226	-0.417794
1.44500	43.243	-0.421353
1.44667	43.258	-0.425125
1.44833	43.274	-0.428634
1.45000	43.289	-0.432192
1.45167	43.304	-0.435695
1.45333	43.320	-0.439266
1.45500	43.335	-0.443034
1.45667	43.351	-0.446475
1.45833	43.366	-0.450087
1.46000	43.381	-0.453366
1.46167	43.397	-0.456967
1.46333	43.413	-0.460859
1.46500	43.427	-0.464865
1.46667	43.443	-0.468761
1.46833	43.459	-0.472535
1.47000	43.473	-0.476809
1.47167	43.488	-0.481069
1.47333	43.503	-0.485114
1.47500	43.518	-0.489748
1.47667	43.534	-0.494043
1.47833	43.548	-0.498326
1.48000	43.563	-0.502654
1.48167	43.578	-0.507675
1.48333	43.593	-0.512130
1.48500	43.609	-0.516704
1.48667	43.624	-0.521242
1.48833	43.638	-0.526317
1.49000	43.653	-0.530968
1.49167	43.668	-0.535590
1.49333	43.683	-0.540148
1.49500	43.696	-0.544851
1.49667	43.712	-0.549619
1.49833	43.727	-0.554104
1.50000	43.741	-0.558901
1.50167	43.756	-0.564036
1.50333	43.771	-0.569328
1.50500	43.786	-0.574393
1.50667	43.800	-0.579917
1.50833	43.814	-0.585733
1.51000	43.829	-0.591529
1.51167	43.843	-0.596988
1.51333	43.858	-0.602449
1.51500	43.872	-0.608238
1.51667	43.886	-0.614222
1.51833	43.901	-0.620268
1.52000	43.915	-0.626634
1.52167	43.930	-0.632980
1.52333	43.944	-0.638728
1.52500	43.959	-0.645164
1.52667	43.973	-0.651938
1.52833	43.987	-0.659153
1.53000	44.000	-0.665622
1.53167	44.015	-0.672681
1.53333	44.028	-0.679900
1.53500	44.042	-0.687875
1.53667	44.057	-0.696101
1.53833	44.070	-0.705380
1.54000	44.084	-0.714711
1.54167	44.097	-0.723825
1.54333	44.110	-0.733649
1.54500	44.125	-0.743903
1.54667	44.138	-0.754941
1.54833	44.151	-0.766305
1.55000	44.164	-0.778291
1.55167	44.177	-0.790818
1.55333	44.191	-0.804319
1.55500	44.202	-0.818598
1.55667	44.216	-0.833421
1.55833	44.228	-0.848930
1.56000	44.241	-0.864755
1.56167	44.254	-0.881359
1.56333	44.266	-0.898647
1.56500	44.278	-0.916389
1.56667	44.290	-0.934401
1.56833	44.301	-0.952851
1.57000	44.312	-0.971997
1.57167	44.324	-0.991486
1.57333	44.334	-1.01132
1.57500	44.345	-1.03126
1.57667	44.355	-1.05164
1.57833	44.366	-1.07206
1.58000	44.376	-1.09280
1.58167	44.386	-1.11368
1.58333	44.397	-1.13464
1.58500	44.406	-1.15558
1.58667	44.416	-1.17578
1.58833	44.427	-1.19580
1.59000	44.436	-1.21568
1.59167	44.445	-1.23491
1.59333	44.455	-1.25388
1.59500	44.463	-1.27217
1.59667	44.473	-1.28992
1.59833	44.481	-1.30721
1.60000	44.489	-1.32415
1.60167	44.498	-1.34079
1.60333	44.507	-1.35668
1.60500	44.516	-1.37194
1.60667	44.526	-1.38654
1.60833	44.535	-1.40017
1.61000	44.543	-1.41278
1.61167	44.551	-1.42553
1.61333	44.561	-1.43744
1.61500	44.570	-1.44917
1.61667	44.579	-1.46113
1.61833	44.587	-1.47315
1.62000	44.597	-1.48583
1.62167	44.606	-1.49949
1.62333	44.615	-1.51364
1.62500	44.624	-1.52836
1.62667	44.632	-1.54367
1.62833	44.642	-1.56013
1.63000	44.650	-1.57751
1.63167	44.659	-1.59571
1.63333	44.667	-1.61469
1.63500	44.675	-1.63416
1.63667	44.684	-1.65408
1.63833	44.692	-1.67415
1.64000	44.700	-1.69379
1.64167	44.708	-1.71332
1.64333	44.717	-1.73219
1.64500	44.725	-1.75171
1.64667	44.732	-1.77185
1.64833	44.740	-1.79336
1.65000	44.748	-1.81575
1.65167	44.754	-1.83952
1.65333	44.763	-1.86407
1.65500	44.770	-1.88928
1.65667	44.777	-1.91450
1.65833	44.783	-1.93876
1.66000	44.791	-1.96166
1.66167	44.797	-1.98286
1.66333	44.804	-2.00249
1.66500	44.811	-2.02083
1.66667	44.816	-2.03790
1.66833	44.823	-2.05406
1.67000	44.829	-2.06997
1.67167	44.836	-2.08585
1.67333	44.843	-2.10179
1.67500	44.849	-2.11816
1.67667	44.857	-2.13575
1.67833	44.865	-2.15431
1.68000	44.871	-2.17353
1.68167	44.878	-2.19351
1.68333	44.885	-2.21430
1.68500	44.892	-2.23539
1.68667	44.898	-2.25658
1.68833	44.904	-2.27751
1.69000	44.910	-2.29795
1.69167	44.917	-2.31777
1.69333	44.922	-2.33717
1.69500	44.929	-2.35684
1.69667	44.935	-2.37633
1.69833	44.942	-2.39637
1.70000	44.947	-2.41694
1.70167	44.955	-2.43793
1.70333	44.961	-2.45989
1.70500	44.967	-2.48215
1.70667	44.972	-2.50485
1.70833	44.979	-2.52719
1.71000	44.984	-2.54932
1.71167	44.990	-2.57152
1.71333	44.996	-2.59364
1.71500	45.001	-2.61576
1.71667	45.007	-2.63838
1.71833	45.012	-2.66072
1.72000	45.018	-2.68314
1.72167	45.022	-2.70539
1.72333	45.028	-2.72655
1.72500	45.034	-2.74712
1.72667	45.039	-2.76675
1.72833	45.045	-2.78614
1.73000	45.050	-2.80472
1.73167	45.055	-2.82294
1.73333	45.061	-2.84092
1.73500	45.066	-2.85871
1.73667	45.072	-2.87564
1.73833	45.077	-2.89199
1.74000	45.082	-2.90748
1.74167	45.086	-2.92138
1.74333	45.093	-2.93419
1.74500	45.099	-2.94607
1.74667	45.106	-2.95689
1.74833	45.112	-2.96689
1.75000	45.117	-2.97646
1.75167	45.123	-2.98595
1.75333	45.130	-2.99661
1.75500	45.136	-3.00747
1.75667	45.143	-3.01924
1.75833	45.149	-3.03271
1.76000	45.156	-3.04760
1.76167	45.163	-3.06461
1.76333	45.170	-3.08330
1.76500	45.176	-3.10381
1.76667	45.184	-3.12633
1.76833	45.190	-3.15049
1.77000	45.196	-3.17614
1.77167	45.203	-3.20308
1.77333	45.209	-3.23015
1.77500	45.214	-3.25682
1.77667	45.220	-3.28160
1.77833	45.225	-3.30386
1.78000	45.231	-3.32407
1.78167	45.236	-3.34102
1.78333	45.242	-3.35561
1.78500	45.248	-3.36839
1.78667	45.254	-3.37986
1.78833	45.259	-3.39151
1.79000	45.266	-3.40313
1.79167	45.272	-3.41479
1.79333	45.278	-3.42619
1.79500	45.284	-3.43679
1.79667	45.291	-3.44683
1.79833	45.297	-3.45645
1.80000	45.305	-3.46533
1.80167	45.312	-3.47386
1.80333	45.319	-3.48139
1.80500	45.327	-3.48850
1.80667	45.334	-3.49569
1.80833	45.343	-3.50260
1.81000	45.350	-3.50975
1.81167	45.358	-3.51709
1.81333	45.366	-3.52408
1.81500	45.375	-3.53124
1.81667	45.383	-3.53850
1.81833	45.391	-3.54605
1.82000	45.400	-3.55439
1.82167	45.409	-3.56345
1.82333	45.417	-3.57399
1.82500	45.426	-3.58623
1.82667	45.435	-3.59985
1.82833	45.445	-3.61469
1.83000	45.452	-3.63059
1.83167	45.461	-3.64702
1.83333	45.469	-3.66341
1.83500	45.477	-3.67882
1.83667	45.484	-3.69236
1.83833	45.493	-3.70379
1.84000	45.502	-3.71339
1.84167	45.510	-3.72305
1.84333	45.519	-3.73336
1.84500	45.529	-3.74498
1.84667	45.538	-3.75767
1.84833	45.548	-3.77209
1.85000	45.555	-3.78848
1.85167	45.564	-3.80552
1.85333	45.573	-3.82280
1.85500	45.580	-3.83978
1.85667	45.589	-3.85416
1.85833	45.597	-3.86681
1.86000	45.606	-3.87801
1.86167	45.614	-3.88783
1.86333	45.623	-3.89652
1.86500	45.632	-3.90420
1.86667	45.642	-3.91119
1.86833	45.650	-3.91802
1.87000	45.659	-3.92483
1.87167	45.669	-3.93186
1.87333	45.678	-3.93944
1.87500	45.687	-3.94741
1.87667	45.697	-3.95642
1.87833	45.706	-3.96691
1.88000	45.716	-3.97917
1.88167	45.726	-3.99435
1.88333	45.735	-4.01240
1.88500	45.744	-4.03245
1.88667	45.753	-4.05424
1.88833	45.762	-4.07681
1.89000	45.770	-4.09978
1.89167	45.779	-4.12302
1.89333	45.786	-4.14516
1.89500	45.794	-4.16579
1.89667	45.801	-4.18399
1.89833	45.810	-4.19924
1.90000	45.819	-4.21214
1.90167	45.826	-4.22302
1.90333	45.836	-4.23146
1.90500	45.843	-4.23817
1.90667	45.853	-4.24312
1.90833	45.861	-4.24713
1.91000	45.870	-4.25092
1.91167	45.880	-4.25454
1.91333	45.890	-4.25903
1.91500	45.899	-4.26492
1.91667	45.909	-4.27211
1.91833	45.918	-4.28108
1.92000	45.929	-4.29219
1.92167	45.937	-4.30562
1.92333	45.947	-4.32170
1.92500	45.956	-4.33953
1.92667	45.966	-4.35916
1.92833	45.975	-4.38027
1.93000	45.983	-4.40197
1.93167	45.992	-4.42364
1.93333	46.000	-4.44526
1.93500	46.008	-4.46676
1.93667	46.017	-4.48717
1.93833	46.025	-4.50678
1.94000	46.034	-4.52523
1.94167	46.041	-4.54281
1.94333	46.050	-4.55940
1.94500	46.058	-4.57489
1.94667	46.066	-4.58934
1.94833	46.075	-4.60232
1.95000	46.084	-4.61370
1.95167	46.092	-4.62360
1.95333	46.100	-4.63175
1.95500	46.107	-4.63836
1.95667	46.117	-4.64379
1.95833	46.126	-4.64798
1.96000	46.135	-4.65261
1.96167	46.145	-4.65939
1.96333	46.154	-4.66952
1.96500	46.163	-4.68336
1.96667	46.173	-4.70030
1.96833	46.181	-4.71976
1.97000	46.190	-4.74162
1.97167	46.199	-4.76396
1.97333	46.207	-4.78600
1.97500	46.215	-4.80652
1.97667	46.224	-4.82415
1.97833	46.232	-4.83900
1.98000	46.239	-4.85141
1.98167	46.248	-4.86257
1.98333	46.257	-4.87355
1.98500	46.266	-4.88536
1.98667	46.274	-4.89722
1.98833	46.284	-4.90947
1.99000	46.291	-4.92195
1.99167	46.301	-4.93460
1.99333	46.308	-4.94719
1.99500	46.317	-4.95942
1.99667	46.326	-4.97042
1.99833	46.333	-4.97983
2.00000	46.343	-4.98739
2.00167	46.352	-4.99407
2.00333	46.361	-5.00044
2.00500	46.371	-5.00604
2.00667	46.380	-5.01118
2.00833	46.389	-5.01503
2.01000	46.399	-5.01889
2.01167	46.409	-5.02209
2.01333	46.419	-5.02515
2.01500	46.429	-5.02770
2.01667	46.440	-5.02974
2.01833	46.450	-5.03079
2.02000	46.460	-5.03149
2.02167	46.470	-5.03204
2.02333	46.482	-5.03342
2.02500	46.493	-5.03536
2.02667	46.504	-5.03730
2.02833	46.516	-5.04174
2.03000	46.527	-5.04966
2.03167	46.537	-5.06144
2.03333	46.549	-5.07688
2.03500	46.560	-5.09457
2.03667	46.571	-5.11358
2.03833	46.581	-5.13285
2.04000	46.591	-5.15065
2.04167	46.601	-5.16497
2.04333	46.611	-5.17483
2.04500	46.623	-5.17878
2.04667	46.632	-5.17715
2.04833	46.643	-5.17117
2.05000	46.654	-5.16241
2.05167	46.666	-5.15094
2.05333	46.679	-5.13814
2.05500	46.691	-5.12553
2.05667	46.704	-5.11440
2.05833	46.716	-5.10397
2.06000	46.730	-5.09357
2.06167	46.743	-5.08398
2.06333	46.757	-5.07443
2.06500	46.771	-5.06520
2.06667	46.786	-5.05524
2.06833	46.800	-5.04502
2.07000	46.815	-5.03348
2.07167	46.830	-5.02016
2.07333	46.845	-5.00492
2.07500	46.861	-4.98936
2.07667	46.876	-4.97350
2.07833	46.893	-4.95699
2.08000	46.910	-4.93973
2.08167	46.926	-4.92171
2.08333	46.943	-4.90345
2.08500	46.961	-4.88393
2.08667	46.977	-4.86292
2.08833	46.996	-4.84046
2.09000	47.014	-4.81604
2.09167	47.033	-4.78934
2.09333	47.052	-4.76088
2.09500	47.071	-4.73107
2.09667	47.091	-4.70000
2.09833	47.111	-4.66735
2.10000	47.132	-4.63338
2.10167	47.154	-4.59872
2.10333	47.176	-4.56397
2.10500	47.198	-4.52871
2.10667	47.221	-4.49435
2.10833	47.244	-4.46045
2.11000	47.267	-4.42657
2.11167	47.291	-4.39293
2.11333	47.314	-4.35937
2.11500	47.340	-4.32587
2.11667	47.364	-4.29272
2.11833	47.389	-4.25960
2.12000	47.415	-4.22712
2.12167	47.439	-4.19493
2.12333	47.466	-4.16261
2.12500	47.492	-4.13037
2.12667	47.519	-4.09680
2.12833	47.544	-4.06268
2.13000	47.572	-4.02620
2.13167	47.598	-3.98719
2.13333	47.625	-3.94545
2.13500	47.654	-3.90088
2.13667	47.683	-3.85333
2.13833	47.712	-3.80276
2.14000	47.741	-3.74901
2.14167	47.771	-3.69328
2.14333	47.801	-3.63609
2.14500	47.833	-3.57678
2.14667	47.864	-3.51746
2.14833	47.896	-3.45840
2.15000	47.929	-3.39999
2.15167	47.963	-3.34279
2.15333	47.997	-3.28803
2.15500	48.032	-3.23645
2.15667	48.067	-3.18761
2.15833	48.101	-3.14108
2.16000	48.136	-3.09760
2.16167	48.171	-3.05635
2.16333	48.206	-3.01656
2.16500	48.241	-2.97829
2.16667	48.276	-2.94133
2.16833	48.311	-2.90541
2.17000	48.347	-2.86985
2.17167	48.382	-2.83533
2.17333	48.417	-2.80135
2.17500	48.453	-2.76794
2.17667	48.488	-2.73499
2.17833	48.523	-2.70242
2.18000	48.559	-2.67018
2.18167	48.594	-2.63792
2.18333	48.629	-2.60525
2.18500	48.664	-2.57285
2.18667	48.699	-2.54067
2.18833	48.735	-2.50851
2.19000	48.772	-2.47650
2.19167	48.806	-2.44470
2.19333	48.842	-2.41313
2.19500	48.877	-2.38177
2.19667	48.913	-2.35021
2.19833	48.947	-2.31894
2.20000	48.983	-2.28752
2.20167	49.018	-2.25557
2.20333	49.054	-2.22298
2.20500	49.089	-2.18996
2.20667	49.124	-2.15661
2.20833	49.160	-2.12332
2.21000	49.195	-2.09019
2.21167	49.230	-2.05825
2.21333	49.266	-2.02685
2.21500	49.300	-1.99669
2.21667	49.337	-1.96830
2.21833	49.372	-1.94136
2.22000	49.407	-1.91567
2.22167	49.443	-1.89130
2.22333	49.477	-1.86781
2.22500	49.512	-1.84500
2.22667	49.547	-1.82333
2.22833	49.581	-1.80224
2.23000	49.614	-1.78246
2.23167	49.649	-1.76285
2.23333	49.684	-1.74374
2.23500	49.717	-1.72526
2.23667	49.751	-1.70761
2.23833	49.784	-1.68976
2.24000	49.817	-1.67223
2.24167	49.850	-1.65547
2.24333	49.883	-1.63886
2.24500	49.915	-1.62233
2.24667	49.949	-1.60591
2.24833	49.980	-1.59008
2.25000	50.012	-1.57452
2.25167	50.045	-1.55927
2.25333	50.076	-1.54406
2.25500	50.108	-1.52958
2.25667	50.139	-1.51502
2.25833	50.171	-1.50066
2.26000	50.203	-1.48663
2.26167	50.233	-1.47301
2.26333	50.263	-1.45986
2.26500	50.294	-1.44660
2.26667	50.324	-1.43349
2.26833	50.354	-1.42072
2.27000	50.385	-1.40819
2.27167	50.415	-1.39566
2.27333	50.444	-1.38333
2.27500	50.473	-1.37090
2.27667	50.503	-1.35855
2.27833	50.533	-1.34633
2.28000	50.562	-1.33432
2.28167	50.593	-1.32254
2.28333	50.621	-1.31065
2.28500	50.650	-1.29914
2.28667	50.677	-1.28824
2.28833	50.706	-1.27748
2.29000	50.734	-1.26682
2.29167	50.762	-1.25645
2.29333	50.790	-1.24535
2.29500	50.817	-1.23484
2.29667	50.846	-1.22430
2.29833	50.873	-1.21420
2.30000	50.900	-1.20413
2.30167	50.928	-1.19390
2.30333	50.955	-1.18388
2.30500	50.982	-1.17423
2.30667	51.010	-1.16474
2.30833	51.036	-1.15545
2.31000	51.063	-1.14614
2.31167	51.089	-1.13622
2.31333	51.117	-1.12690
2.31500	51.142	-1.11719
2.31667	51.169	-1.10780
2.31833	51.195	-1.09935
2.32000	51.221	-1.09106
2.32167	51.247	-1.08290
2.32333	51.273	-1.07432
2.32500	51.299	-1.06601
2.32667	51.325	-1.05794
2.32833	51.350	-1.04964
2.33000	51.375	-1.04113
2.33167	51.399	-1.03280
2.33333	51.425	-1.02428
2.33500	51.450	-1.01599
2.33667	51.475	-1.00808
2.33833	51.498	-1.00018
2.34000	51.525	-0.992514
2.34167	51.548	-0.984688
2.34333	51.574	-0.977059
2.34500	51.598	-0.969599
2.34667	51.624	-0.962153
2.34833	51.648	-0.954909
2.35000	51.672	-0.947907
2.35167	51.696	-0.940790
2.35333	51.720	-0.934324
2.35500	51.744	-0.927791
2.35667	51.767	-0.921095
2.35833	51.791	-0.914344
2.36000	51.815	-0.907538
2.36167	51.838	-0.901025
2.36333	51.861	-0.894200
2.36500	51.885	-0.887450
2.36667	51.908	-0.881128
2.36833	51.931	-0.874894
2.37000	51.955	-0.868470
2.37167	51.978	-0.862297
2.37333	52.001	-0.856423
2.37500	52.024	-0.850605
2.37667	52.047	-0.844841
2.37833	52.069	-0.839547
2.38000	52.092	-0.833928
2.38167	52.115	-0.827932
2.38333	52.137	-0.822383
2.38500	52.159	-0.817004
2.38667	52.182	-0.811041
2.38833	52.205	-0.805168
2.39000	52.227	-0.799634
2.39167	52.249	-0.794171
2.39333	52.272	-0.788941
2.39500	52.293	-0.783882
2.39667	52.316	-0.779012
2.39833	52.338	-0.774059
2.40000	52.360	-0.769108
2.40167	52.382	-0.764345
2.40333	52.403	-0.759868
2.40500	52.425	-0.755584
2.40667	52.446	-0.750775
2.40833	52.468	-0.745728
2.41000	52.490	-0.741240
2.41167	52.511	-0.736639
2.41333	52.532	-0.732637
2.41500	52.554	-0.728078
2.41667	52.575	-0.723639
2.41833	52.596	-0.719007
2.42000	52.618	-0.714673
2.42167	52.639	-0.710193
2.42333	52.660	-0.706336
2.42500	52.681	-0.702059
2.42667	52.702	-0.697532
2.42833	52.722	-0.693633
2.43000	52.744	-0.689571
2.43167	52.764	-0.685818
2.43333	52.785	-0.681894
2.43500	52.806	-0.677907
2.43667	52.827	-0.674023
2.43833	52.846	-0.670343
2.44000	52.867	-0.666704
2.44167	52.888	-0.663075
2.44333	52.909	-0.659355
2.44500	52.929	-0.655787
2.44667	52.949	-0.652415
2.44833	52.970	-0.648920
2.45000	52.989	-0.645764
2.45167	53.010	-0.642523
2.45333	53.031	-0.638940
2.45500	53.050	-0.635970
2.45667	53.071	-0.632852
2.45833	53.091	-0.629876
2.46000	53.110	-0.626716
2.46167	53.131	-0.623236
2.46333	53.151	-0.620167
2.46500	53.171	-0.616559
2.46667	53.190	-0.613062
2.46833	53.210	-0.609844
2.47000	53.230	-0.607010
2.47167	53.250	-0.604062
2.47333	53.270	-0.601415
2.47500	53.290	-0.598702
2.47667	53.310	-0.596363
2.47833	53.329	-0.594060
2.48000	53.349	-0.591471
2.48167	53.368	-0.588938
2.48333	53.389	-0.586223
2.48500	53.408	-0.583505
2.48667	53.427	-0.580631
2.48833	53.446	-0.578005
2.49000	53.465	-0.575583
2.49167	53.485	-0.573006
2.49333	53.505	-0.570283
2.49500	53.523	-0.567695
2.49667	53.543	-0.565115
2.49833	53.561	-0.562784
2.50000	53.581	-0.560210
2.50167	53.600	-0.557797
2.50333	53.619	-0.555313
2.50500	53.638	-0.552927
2.50667	53.658	-0.550925
2.50833	53.677	-0.549287
2.51000	53.696	-0.547438
2.51167	53.716	-0.545517
2.51333	53.734	-0.543498
2.51500	53.752	-0.541235
2.51667	53.771	-0.539371
2.51833	53.790	-0.537221
2.52000	53.810	-0.535170
2.52167	53.828	-0.533050
2.52333	53.846	-0.530703
2.52500	53.866	-0.528760
2.52667	53.885	-0.526843
2.52833	53.903	-0.525266
2.53000	53.922	-0.523612
2.53167	53.941	-0.521853
2.53333	53.959	-0.519885
2.53500	53.978	-0.517871
2.53667	53.997	-0.516130
2.53833	54.015	-0.513930
2.54000	54.034	-0.511943
2.54167	54.052	-0.510073
2.54333	54.069	-0.508056
2.54500	54.089	-0.506374
2.54667	54.108	-0.504420
2.54833	54.126	-0.503052
2.55000	54.144	-0.501289
2.55167	54.163	-0.499650
2.55333	54.181	-0.497886
2.55500	54.199	-0.496372
2.55667	54.217	-0.494993
2.55833	54.235	-0.493915
2.56000	54.254	-0.492503
2.56167	54.272	-0.491165
2.56333	54.291	-0.490006
2.56500	54.309	-0.488392
2.56667	54.327	-0.487392
2.56833	54.346	-0.485849
2.57000	54.364	-0.484486
2.57167	54.383	-0.483108
2.57333	54.400	-0.481888
2.57500	54.418	-0.480813
2.57667	54.436	-0.479481
2.57833	54.454	-0.477763
2.58000	54.472	-0.476098
2.58167	54.489	-0.474607
2.58333	54.507	-0.473214
2.58500	54.526	-0.472129
2.58667	54.544	-0.470593
2.58833	54.562	-0.469444
2.59000	54.579	-0.468296
2.59167	54.598	-0.467597
2.59333	54.616	-0.466618
2.59500	54.633	-0.465714
2.59667	54.650	-0.464168
2.59833	54.669	-0.462806
2.60000	54.686	-0.461298
2.60167	54.704	-0.460376
2.60333	54.722	-0.459647
2.60500	54.740	-0.458456
2.60667	54.758	-0.457137
2.60833	54.775	-0.455796
2.61000	54.794	-0.454865
2.61167	54.812	-0.453736
2.61333	54.829	-0.453023
2.61500	54.847	-0.451712
2.61667	54.865	-0.450760
2.61833	54.883	-0.449878
2.62000	54.900	-0.449076
2.62167	54.918	-0.448288
2.62333	54.935	-0.447000
2.62500	54.954	-0.445857
2.62667	54.970	-0.444981
2.62833	54.989	-0.443967
2.63000	55.007	-0.443133
2.63167	55.024	-0.442660
2.63333	55.043	-0.441903
2.63500	55.060	-0.440945
2.63667	55.077	-0.439988
2.63833	55.096	-0.439292
2.64000	55.112	-0.438796
2.64167	55.130	-0.437762
2.64333	55.148	-0.436997
2.64500	55.165	-0.436180
2.64667	55.183	-0.435250
2.64833	55.200	-0.434703
2.65000	55.218	-0.434006
2.65167	55.235	-0.433231
2.65333	55.252	-0.432095
2.65500	55.270	-0.430681
2.65667	55.288	-0.429907
2.65833	55.305	-0.429406
2.66000	55.321	-0.428830
2.66167	55.339	-0.428542
2.66333	55.356	-0.428186
2.66500	55.375	-0.427939
2.66667	55.392	-0.427183
2.66833	55.410	-0.426518
2.67000	55.427	-0.426036
2.67167	55.444	-0.425420
2.67333	55.462	-0.424361
2.67500	55.479	-0.423348
2.67667	55.496	-0.422430
2.67833	55.514	-0.421688
2.68000	55.531	-0.420967
2.68167	55.548	-0.419869
2.68333	55.566	-0.419345
2.68500	55.583	-0.418987
2.68667	55.600	-0.418237
2.68833	55.618	-0.417786
2.69000	55.635	-0.417768
2.69167	55.653	-0.417318
2.69333	55.669	-0.417010
2.69500	55.687	-0.416678
2.69667	55.704	-0.416132
2.69833	55.721	-0.415244
2.70000	55.737	-0.414436
2.70167	55.754	-0.413607
2.70333	55.772	-0.412914
2.70500	55.789	-0.412240
2.70667	55.806	-0.412094
2.70833	55.824	-0.411988
2.71000	55.842	-0.411818
2.71167	55.858	-0.411391
2.71333	55.875	-0.411494
2.71500	55.892	-0.411594
2.71667	55.910	-0.411299
2.71833	55.927	-0.410689
2.72000	55.944	-0.409919
2.72167	55.961	-0.409202
2.72333	55.978	-0.408279
2.72500	55.995	-0.407515
2.72667	56.014	-0.406995
2.72833	56.030	-0.406205
2.73000	56.047	-0.405504
2.73167	56.064	-0.404885
2.73333	56.082	-0.404715
2.73500	56.098	-0.404592
2.73667	56.115	-0.404079
2.73833	56.133	-0.403306
2.74000	56.150	-0.403218
2.74167	56.166	-0.403168
2.74333	56.183	-0.402784
2.74500	56.201	-0.402332
2.74667	56.218	-0.401779
2.74833	56.235	-0.401450
2.75000	56.252	-0.401247
2.75167	56.269	-0.400939
2.75333	56.287	-0.400892
2.75500	56.303	-0.400741
2.75667	56.319	-0.400323
2.75833	56.336	-0.400041
2.76000	56.353	-0.399716
2.76167	56.370	-0.399580
2.76333	56.387	-0.399173
2.76500	56.404	-0.398659
2.76667	56.422	-0.398225
2.76833	56.439	-0.398019
2.77000	56.456	-0.397701
2.77167	56.472	-0.397316
2.77333	56.490	-0.397190
2.77500	56.507	-0.397080
2.77667	56.523	-0.396729
2.77833	56.540	-0.396477
2.78000	56.556	-0.396284
2.78167	56.573	-0.396015
2.78333	56.592	-0.395624
2.78500	56.608	-0.395388
2.78667	56.625	-0.395317
2.78833	56.641	-0.395351
2.79000	56.659	-0.395402
2.79167	56.676	-0.395481
2.79333	56.693	-0.395529
2.79500	56.710	-0.395529
2.79667	56.728	-0.395475
2.79833	56.745	-0.395275
2.80000	56.762	-0.394993
2.80167	56.779	-0.394573
2.80333	56.795	-0.393929
2.80500	56.813	-0.393473
2.80667	56.829	-0.393139
2.80833	56.846	-0.392805
2.81000	56.864	-0.392532
2.81167	56.880	-0.392416
2.81333	56.896	-0.392411
2.81500	56.914	-0.392384
2.81667	56.929	-0.392289
2.81833	56.947	-0.392175
2.82000	56.964	-0.392102
2.82167	56.982	-0.392016
2.82333	56.998	-0.391814
2.82500	57.014	-0.391627
2.82667	57.032	-0.391364
2.82833	57.048	-0.391101
2.83000	57.065	-0.390878
2.83167	57.082	-0.390785
2.83333	57.099	-0.390688
2.83500	57.116	-0.390562
2.83667	57.134	-0.390455
2.83833	57.149	-0.390347
2.84000	57.166	-0.390300
2.84167	57.184	-0.390207
2.84333	57.200	-0.390095
2.84500	57.217	-0.389934
2.84667	57.234	-0.389804
2.84833	57.251	-0.389688
2.85000	57.267	-0.389602
2.85167	57.284	-0.389500
2.85333	57.300	-0.389375
2.85500	57.317	-0.389222
2.85667	57.335	-0.389086
2.85833	57.351	-0.388992
2.86000	57.369	-0.388921
2.86167	57.385	-0.388856
2.86333	57.402	-0.388812
2.86500	57.419	-0.388769
2.86667	57.436	-0.388738
2.86833	57.453	-0.388714
2.87000	57.469	-0.388698
2.87167	57.485	-0.388674
2.87333	57.503	-0.388622
2.87500	57.518	-0.388526
2.87667	57.535	-0.388368
2.87833	57.553	-0.388052
2.88000	57.570	-0.387766
2.88167	57.587	-0.387642
2.88333	57.604	-0.387515
2.88500	57.621	-0.387384
2.88667	57.638	-0.387264
2.88833	57.656	-0.387181
2.89000	57.671	-0.387156
2.89167	57.688	-0.387151
2.89333	57.706	-0.387138
2.89500	57.722	-0.387130
2.89667	57.739	
2.89833	57.756	
2.90000	57.772	
2.90167	57.790	
2.90333	57.806	
2.90500	57.822	
2.90667	57.839	
2.90833	57.855	
2.91000	57.872	
2.91167	57.889	
2.91333	57.907	
2.91500	57.923	
2.91667	57.940	
2.91833	57.956	
2.92000	57.973	
2.92167	57.990	
2.92333	58.007	
2.92500	58.023	
2.92667	58.040	
2.92833	58.057	
2.93000	58.074	
2.93167	58.090	
2.93333	58.107	
2.93500	58.124	
2.93667	58.140	
2.93833	58.157	
2.94000	58.175	
2.94167	58.191	
2.94333	58.207	
2.94500	58.224	
2.94667		
2.94833		
2.95000		
2.95167		
2.95333		

