Filename	3-nitrobenzaldehyde
Instrument name	DSC2A-00807 (172.23.165.2)
Operator	Petroc Shelley
rundate	5/3/2019
Sample name	3-nitrobenzaldehyde
proceduresegments	Ramp 10 °C/min to 80.00 °C
[step]
Ramp 10 °C/min to 80.00 °C
Time	Temperature	Heat Flow (Normalized)
min	°C	W/g
0.00000		
1.66667e-3		
3.33333e-3		
5.00000e-3		
6.66667e-3		
8.33333e-3	30.299	
0.0100000	30.301	
0.0116667	30.304	
0.0133333	30.306	
0.0150000	30.309	
0.0166667	30.312	
0.0183333	30.314	
0.0200000	30.316	
0.0216667	30.319	
0.0233333	30.322	
0.0250000	30.325	
0.0266667	30.327	
0.0283333	30.330	
0.0300000	30.332	
0.0316667	30.336	
0.0333333	30.339	
0.0350000	30.341	
0.0366667	30.345	
0.0383333	30.346	
0.0400000	30.352	
0.0416667	30.354	
0.0433333	30.356	
0.0450000	30.359	
0.0466667	30.363	
0.0483333	30.366	
0.0500000	30.370	
0.0516667	30.373	
0.0533333	30.377	
0.0550000	30.382	
0.0566667	30.385	
0.0583333	30.389	-0.206019
0.0600000	30.395	-0.206002
0.0616667	30.399	-0.205857
0.0633333	30.403	-0.205410
0.0650000	30.409	-0.204478
0.0666667	30.413	-0.203025
0.0683333	30.418	-0.201252
0.0700000	30.425	-0.199406
0.0716667	30.430	-0.197605
0.0733333	30.435	-0.195734
0.0750000	30.441	-0.194012
0.0766667	30.448	-0.192482
0.0783333	30.454	-0.191180
0.0800000	30.460	-0.190207
0.0816667	30.467	-0.189353
0.0833333	30.474	-0.188523
0.0850000	30.480	-0.187791
0.0866667	30.488	-0.187082
0.0883333	30.496	-0.186077
0.0900000	30.504	-0.185157
0.0916667	30.511	-0.184211
0.0933333	30.520	-0.183285
0.0950000	30.529	-0.182665
0.0966667	30.537	-0.181931
0.0983333	30.546	-0.181458
0.100000	30.555	-0.181172
0.101667	30.564	-0.180887
0.103333	30.572	-0.180475
0.105000	30.582	-0.180192
0.106667	30.592	-0.179605
0.108333	30.601	-0.179106
0.110000	30.611	-0.178456
0.111667	30.621	-0.177891
0.113333	30.632	-0.177315
0.115000	30.643	-0.176923
0.116667	30.654	-0.176523
0.118333	30.664	-0.176114
0.120000	30.676	-0.175490
0.121667	30.686	-0.175003
0.123333	30.697	-0.174588
0.125000	30.708	-0.174185
0.126667	30.719	-0.173637
0.128333	30.730	-0.173045
0.130000	30.743	-0.172443
0.131667	30.754	-0.171883
0.133333	30.767	-0.171542
0.135000	30.778	-0.171218
0.136667	30.790	-0.170962
0.138333	30.802	-0.170518
0.140000	30.814	-0.170066
0.141667	30.827	-0.169692
0.143333	30.838	-0.169491
0.145000	30.850	-0.169134
0.146667	30.862	-0.168738
0.148333	30.875	-0.168484
0.150000	30.888	-0.168196
0.151667	30.901	-0.167828
0.153333	30.913	-0.167526
0.155000	30.926	-0.167225
0.156667	30.939	-0.166843
0.158333	30.953	-0.166430
0.160000	30.965	-0.166059
0.161667	30.979	-0.165693
0.163333	30.992	-0.165155
0.165000	31.005	-0.164308
0.166667	31.018	-0.163525
0.168333	31.031	-0.162825
0.170000	31.044	-0.162144
0.171667	31.057	-0.161732
0.173333	31.070	-0.161690
0.175000	31.083	-0.161667
0.176667	31.096	-0.161668
0.178333	31.109	-0.161632
0.180000	31.123	-0.161605
0.181667	31.135	-0.161483
0.183333	31.149	-0.161271
0.185000	31.162	-0.160737
0.186667	31.175	-0.160096
0.188333	31.189	-0.159473
0.190000	31.202	-0.158971
0.191667	31.216	-0.158699
0.193333	31.229	-0.158443
0.195000	31.243	-0.158322
0.196667	31.257	-0.158199
0.198333	31.270	-0.158118
0.200000	31.283	-0.158035
0.201667	31.297	-0.158006
0.203333	31.311	-0.158011
0.205000	31.324	-0.158001
0.206667	31.337	-0.157969
0.208333	31.351	-0.157941
0.210000	31.364	-0.157888
0.211667	31.379	-0.157819
0.213333	31.391	-0.157713
0.215000	31.406	-0.157573
0.216667	31.420	-0.157360
0.218333	31.433	-0.157219
0.220000	31.447	-0.157112
0.221667	31.460	-0.157029
0.223333	31.474	-0.156995
0.225000	31.489	-0.156971
0.226667	31.503	-0.156960
0.228333	31.517	-0.156958
0.230000	31.530	-0.156940
0.231667	31.545	-0.156923
0.233333	31.559	-0.156909
0.235000	31.572	-0.156927
0.236667	31.586	-0.156991
0.238333	31.601	-0.157070
0.240000	31.615	-0.157148
0.241667	31.628	-0.157218
0.243333	31.643	-0.157280
0.245000	31.658	-0.157337
0.246667	31.672	-0.157392
0.248333	31.685	-0.157437
0.250000	31.701	-0.157491
0.251667	31.714	-0.157553
0.253333	31.729	-0.157628
0.255000	31.743	-0.157715
0.256667	31.758	-0.157812
0.258333	31.772	-0.157920
0.260000	31.787	-0.158002
0.261667	31.801	-0.158066
0.263333	31.816	-0.158144
0.265000	31.830	-0.158234
0.266667	31.844	-0.158327
0.268333	31.859	-0.158434
0.270000	31.873	-0.158611
0.271667	31.888	-0.158824
0.273333	31.902	-0.159020
0.275000	31.917	-0.159230
0.276667	31.932	-0.159373
0.278333	31.947	-0.159472
0.280000	31.962	-0.159542
0.281667	31.977	-0.159604
0.283333	31.992	-0.159650
0.285000	32.006	-0.159690
0.286667	32.021	-0.159734
0.288333	32.036	-0.159799
0.290000	32.051	-0.159949
0.291667	32.066	-0.160100
0.293333	32.080	-0.160225
0.295000	32.095	-0.160383
0.296667	32.110	-0.160499
0.298333	32.125	-0.160667
0.300000	32.140	-0.160923
0.301667	32.155	-0.161193
0.303333	32.170	-0.161534
0.305000	32.184	-0.161870
0.306667	32.199	-0.162193
0.308333	32.215	-0.162551
0.310000	32.230	-0.162753
0.311667	32.246	-0.162917
0.313333	32.260	-0.163032
0.315000	32.276	-0.163095
0.316667	32.290	-0.163124
0.318333	32.305	-0.163150
0.320000	32.322	-0.163205
0.321667	32.336	-0.163320
0.323333	32.352	-0.163497
0.325000	32.367	-0.163692
0.326667	32.382	-0.163886
0.328333	32.397	-0.163985
0.330000	32.412	-0.164093
0.331667	32.427	-0.164250
0.333333	32.443	-0.164380
0.335000	32.458	-0.164465
0.336667	32.473	-0.164587
0.338333	32.488	-0.164667
0.340000	32.503	-0.164774
0.341667	32.520	-0.164882
0.343333	32.535	-0.164970
0.345000	32.552	-0.165049
0.346667	32.567	-0.165098
0.348333	32.582	-0.165130
0.350000	32.597	-0.165179
0.351667	32.612	-0.165248
0.353333	32.627	-0.165343
0.355000	32.644	-0.165481
0.356667	32.659	-0.165586
0.358333	32.674	-0.165701
0.360000	32.689	-0.165776
0.361667	32.705	-0.165848
0.363333	32.720	-0.165889
0.365000	32.736	-0.165928
0.366667	32.751	-0.165962
0.368333	32.767	-0.166007
0.370000	32.782	-0.166070
0.371667	32.798	-0.166211
0.373333	32.813	-0.166393
0.375000	32.829	-0.166561
0.376667	32.845	-0.166769
0.378333	32.860	-0.166949
0.380000	32.876	-0.167095
0.381667	32.892	-0.167299
0.383333	32.906	-0.167469
0.385000	32.922	-0.167593
0.386667	32.938	-0.167683
0.388333	32.954	-0.167764
0.390000	32.970	-0.167841
0.391667	32.986	-0.167911
0.393333	33.001	-0.167998
0.395000	33.016	-0.168072
0.396667	33.033	-0.168110
0.398333	33.048	-0.168125
0.400000	33.063	-0.168165
0.401667	33.079	-0.168190
0.403333	33.095	-0.168209
0.405000	33.110	-0.168248
0.406667	33.127	-0.168357
0.408333	33.142	-0.168544
0.410000	33.158	-0.168734
0.411667	33.173	-0.168876
0.413333	33.189	-0.169004
0.415000	33.205	-0.169197
0.416667	33.221	-0.169373
0.418333	33.237	-0.169575
0.420000	33.252	-0.169634
0.421667	33.269	-0.169678
0.423333	33.285	-0.169747
0.425000	33.300	-0.169815
0.426667	33.316	-0.169870
0.428333	33.332	-0.169890
0.430000	33.347	-0.169911
0.431667	33.363	-0.169957
0.433333	33.380	-0.170001
0.435000	33.395	-0.170045
0.436667	33.411	-0.170104
0.438333	33.427	-0.170136
0.440000	33.443	-0.170180
0.441667	33.459	-0.170220
0.443333	33.474	-0.170244
0.445000	33.491	-0.170284
0.446667	33.506	-0.170307
0.448333	33.522	-0.170330
0.450000	33.539	-0.170354
0.451667	33.554	-0.170384
0.453333	33.570	-0.170475
0.455000	33.586	-0.170659
0.456667	33.603	-0.170834
0.458333	33.619	-0.170978
0.460000	33.635	-0.171047
0.461667	33.651	-0.171083
0.463333	33.667	-0.171106
0.465000	33.681	-0.171121
0.466667	33.698	-0.171132
0.468333	33.714	-0.171142
0.470000	33.730	-0.171155
0.471667	33.746	-0.171174
0.473333	33.762	-0.171201
0.475000	33.778	-0.171262
0.476667	33.794	-0.171346
0.478333	33.809	-0.171445
0.480000	33.826	-0.171515
0.481667	33.843	-0.171548
0.483333	33.858	-0.171575
0.485000	33.874	-0.171603
0.486667	33.890	-0.171630
0.488333	33.906	-0.171655
0.490000	33.922	-0.171680
0.491667	33.938	-0.171704
0.493333	33.954	-0.171727
0.495000	33.970	-0.171750
0.496667	33.987	-0.171772
0.498333	34.003	-0.171793
0.500000	34.018	-0.171810
0.501667	34.035	-0.171828
0.503333	34.051	-0.171846
0.505000	34.068	-0.171866
0.506667	34.084	-0.171887
0.508333	34.100	-0.171912
0.510000	34.116	-0.171943
0.511667	34.132	-0.171982
0.513333	34.147	-0.172010
0.515000	34.164	-0.172035
0.516667	34.181	-0.172062
0.518333	34.196	-0.172086
0.520000	34.212	-0.172106
0.521667	34.228	-0.172123
0.523333	34.245	-0.172139
0.525000	34.261	-0.172154
0.526667	34.278	-0.172172
0.528333	34.294	-0.172195
0.530000	34.310	-0.172220
0.531667	34.326	-0.172246
0.533333	34.342	-0.172274
0.535000	34.359	-0.172298
0.536667	34.375	-0.172324
0.538333	34.391	-0.172349
0.540000	34.407	-0.172374
0.541667	34.422	-0.172401
0.543333	34.439	-0.172441
0.545000	34.454	-0.172496
0.546667	34.471	-0.172577
0.548333	34.487	-0.172693
0.550000	34.504	-0.172882
0.551667	34.521	-0.173104
0.553333	34.537	-0.173285
0.555000	34.552	-0.173511
0.556667	34.569	-0.173669
0.558333	34.586	-0.173811
0.560000	34.601	-0.173934
0.561667	34.618	-0.174027
0.563333	34.634	-0.174122
0.565000	34.650	-0.174151
0.566667	34.666	-0.174203
0.568333	34.682	-0.174240
0.570000	34.698	-0.174260
0.571667	34.714	-0.174277
0.573333	34.730	-0.174299
0.575000	34.747	-0.174319
0.576667	34.764	-0.174344
0.578333	34.780	-0.174373
0.580000	34.797	-0.174411
0.581667	34.812	-0.174469
0.583333	34.828	-0.174498
0.585000	34.845	-0.174538
0.586667	34.861	-0.174572
0.588333	34.878	-0.174602
0.590000	34.894	-0.174628
0.591667	34.911	-0.174658
0.593333	34.927	-0.174690
0.595000	34.943	-0.174720
0.596667	34.960	-0.174750
0.598333	34.975	-0.174781
0.600000	34.991	-0.174808
0.601667	35.009	-0.174837
0.603333	35.025	-0.174869
0.605000	35.041	-0.174901
0.606667	35.057	-0.174930
0.608333	35.074	-0.174955
0.610000	35.090	-0.174981
0.611667	35.106	-0.175007
0.613333	35.123	-0.175032
0.615000	35.139	-0.175055
0.616667	35.155	-0.175076
0.618333	35.172	-0.175096
0.620000	35.188	-0.175121
0.621667	35.204	-0.175145
0.623333	35.221	-0.175174
0.625000	35.236	-0.175205
0.626667	35.253	-0.175234
0.628333	35.270	-0.175262
0.630000	35.286	-0.175292
0.631667	35.301	-0.175322
0.633333	35.318	-0.175350
0.635000	35.335	-0.175374
0.636667	35.351	-0.175393
0.638333	35.367	-0.175410
0.640000	35.384	-0.175422
0.641667	35.401	-0.175433
0.643333	35.417	-0.175445
0.645000	35.433	-0.175456
0.646667	35.450	-0.175465
0.648333	35.466	-0.175474
0.650000	35.483	-0.175485
0.651667	35.499	-0.175498
0.653333	35.516	-0.175513
0.655000	35.532	-0.175531
0.656667	35.548	-0.175549
0.658333	35.564	-0.175568
0.660000	35.581	-0.175584
0.661667	35.597	-0.175602
0.663333	35.613	-0.175623
0.665000	35.629	-0.175642
0.666667	35.645	-0.175662
0.668333	35.662	-0.175683
0.670000	35.678	-0.175706
0.671667	35.696	-0.175731
0.673333	35.711	-0.175755
0.675000	35.728	-0.175776
0.676667	35.745	-0.175795
0.678333	35.762	-0.175813
0.680000	35.778	-0.175828
0.681667	35.794	-0.175844
0.683333	35.810	-0.175862
0.685000	35.827	-0.175878
0.686667	35.842	-0.175895
0.688333	35.859	-0.175918
0.690000	35.876	-0.175944
0.691667	35.892	-0.175968
0.693333	35.909	-0.175988
0.695000	35.925	-0.176008
0.696667	35.941	-0.176031
0.698333	35.958	-0.176050
0.700000	35.974	-0.176072
0.701667	35.990	-0.176097
0.703333	36.006	-0.176121
0.705000	36.023	-0.176146
0.706667	36.040	-0.176174
0.708333	36.057	-0.176204
0.710000	36.073	-0.176264
0.711667	36.090	-0.176329
0.713333	36.106	-0.176401
0.715000	36.122	-0.176520
0.716667	36.139	-0.176607
0.718333	36.156	-0.176670
0.720000	36.171	-0.176695
0.721667	36.188	-0.176719
0.723333	36.205	-0.176740
0.725000	36.221	-0.176758
0.726667	36.238	-0.176773
0.728333	36.254	-0.176795
0.730000	36.271	-0.176820
0.731667	36.287	-0.176848
0.733333	36.304	-0.176930
0.735000	36.320	-0.177022
0.736667	36.337	-0.177190
0.738333	36.353	-0.177274
0.740000	36.370	-0.177337
0.741667	36.386	-0.177389
0.743333	36.402	-0.177433
0.745000	36.418	-0.177461
0.746667	36.436	-0.177491
0.748333	36.452	-0.177553
0.750000	36.469	-0.177653
0.751667	36.484	-0.177815
0.753333	36.501	-0.177992
0.755000	36.518	-0.178115
0.756667	36.534	-0.178270
0.758333	36.551	-0.178385
0.760000	36.567	-0.178468
0.761667	36.584	-0.178560
0.763333	36.601	-0.178607
0.765000	36.618	-0.178648
0.766667	36.633	-0.178733
0.768333	36.651	-0.178844
0.770000	36.667	-0.178992
0.771667	36.683	-0.179151
0.773333	36.699	-0.179237
0.775000	36.717	-0.179294
0.776667	36.733	-0.179338
0.778333	36.749	-0.179369
0.780000	36.765	-0.179411
0.781667	36.782	-0.179466
0.783333	36.798	-0.179532
0.785000	36.814	-0.179623
0.786667	36.831	-0.179698
0.788333	36.848	-0.179798
0.790000	36.865	-0.179896
0.791667	36.881	-0.179974
0.793333	36.897	-0.180056
0.795000	36.914	-0.180148
0.796667	36.930	-0.180241
0.798333	36.947	-0.180318
0.800000	36.964	-0.180423
0.801667	36.979	-0.180590
0.803333	36.997	-0.180774
0.805000	37.014	-0.180892
0.806667	37.031	-0.180972
0.808333	37.046	-0.181006
0.810000	37.063	-0.181064
0.811667	37.080	-0.181118
0.813333	37.095	-0.181188
0.815000	37.112	-0.181218
0.816667	37.129	-0.181250
0.818333	37.145	-0.181284
0.820000	37.161	-0.181382
0.821667	37.179	-0.181577
0.823333	37.195	-0.181806
0.825000	37.212	-0.182010
0.826667	37.229	-0.182118
0.828333	37.244	-0.182177
0.830000	37.263	-0.182217
0.831667	37.278	-0.182284
0.833333	37.295	-0.182335
0.835000	37.311	-0.182411
0.836667	37.327	-0.182487
0.838333	37.343	-0.182588
0.840000	37.361	-0.182678
0.841667	37.377	-0.182790
0.843333	37.394	-0.182904
0.845000	37.410	-0.182979
0.846667	37.426	-0.183091
0.848333	37.443	-0.183238
0.850000	37.458	-0.183379
0.851667	37.476	-0.183559
0.853333	37.493	-0.183701
0.855000	37.509	-0.183802
0.856667	37.526	-0.183938
0.858333	37.543	-0.184012
0.860000	37.560	-0.184108
0.861667	37.577	-0.184208
0.863333	37.592	-0.184348
0.865000	37.609	-0.184502
0.866667	37.626	-0.184679
0.868333	37.643	-0.184875
0.870000	37.659	-0.185165
0.871667	37.676	-0.185369
0.873333	37.692	-0.185494
0.875000	37.709	-0.185678
0.876667	37.725	-0.185903
0.878333	37.741	-0.186194
0.880000	37.758	-0.186482
0.881667	37.774	-0.186748
0.883333	37.791	-0.186876
0.885000	37.806	-0.186978
0.886667	37.824	-0.187062
0.888333	37.840	-0.187105
0.890000	37.857	-0.187135
0.891667	37.874	-0.187178
0.893333	37.890	-0.187233
0.895000	37.907	-0.187338
0.896667	37.923	-0.187497
0.898333	37.939	-0.187710
0.900000	37.957	-0.187877
0.901667	37.973	-0.188002
0.903333	37.989	-0.188056
0.905000	38.006	-0.188087
0.906667	38.024	-0.188166
0.908333	38.041	-0.188194
0.910000	38.056	-0.188240
0.911667	38.073	-0.188299
0.913333	38.090	-0.188359
0.915000	38.107	-0.188457
0.916667	38.123	-0.188602
0.918333	38.139	-0.188848
0.920000	38.155	-0.189023
0.921667	38.173	-0.189141
0.923333	38.189	-0.189211
0.925000	38.206	-0.189269
0.926667	38.223	-0.189337
0.928333	38.238	-0.189447
0.930000	38.255	-0.189599
0.931667	38.271	-0.189747
0.933333	38.288	-0.189916
0.935000	38.304	-0.190178
0.936667	38.323	-0.190461
0.938333	38.338	-0.190817
0.940000	38.354	-0.191304
0.941667	38.371	-0.191644
0.943333	38.389	-0.191856
0.945000	38.404	-0.192058
0.946667	38.421	-0.192220
0.948333	38.437	-0.192460
0.950000	38.454	-0.192673
0.951667	38.471	-0.192890
0.953333	38.487	-0.193047
0.955000	38.503	-0.193182
0.956667	38.520	-0.193358
0.958333	38.537	-0.193632
0.960000	38.554	-0.193888
0.961667	38.570	-0.194098
0.963333	38.586	-0.194378
0.965000	38.604	-0.194596
0.966667	38.620	-0.194949
0.968333	38.636	-0.195354
0.970000	38.653	-0.195915
0.971667	38.670	-0.196423
0.973333	38.687	-0.196879
0.975000	38.703	-0.197260
0.976667	38.719	-0.197627
0.978333	38.736	-0.197883
0.980000	38.752	-0.198103
0.981667	38.768	-0.198285
0.983333	38.786	-0.198391
0.985000	38.801	-0.198469
0.986667	38.818	-0.198516
0.988333	38.836	-0.198590
0.990000	38.853	-0.198636
0.991667	38.869	-0.198684
0.993333	38.885	-0.198723
0.995000	38.902	-0.198784
0.996667	38.919	-0.198970
0.998333	38.936	-0.199241
1.00000	38.952	-0.199617
1.00167	38.969	-0.200035
1.00333	38.986	-0.200496
1.00500	39.002	-0.200964
1.00667	39.018	-0.201388
1.00833	39.034	-0.201777
1.01000	39.052	-0.202048
1.01167	39.067	-0.202230
1.01333	39.084	-0.202316
1.01500	39.101	-0.202395
1.01667	39.119	-0.202460
1.01833	39.135	-0.202566
1.02000	39.151	-0.202652
1.02167	39.168	-0.202738
1.02333	39.185	-0.202837
1.02500	39.201	-0.202926
1.02667	39.217	-0.203037
1.02833	39.233	-0.203213
1.03000	39.250	-0.203354
1.03167	39.267	-0.203441
1.03333	39.283	-0.203485
1.03500	39.300	-0.203542
1.03667	39.316	-0.203626
1.03833	39.333	-0.203787
1.04000	39.350	-0.203957
1.04167	39.366	-0.204125
1.04333	39.383	-0.204238
1.04500	39.399	-0.204380
1.04667	39.416	-0.204616
1.04833	39.433	-0.204807
1.05000	39.449	-0.204981
1.05167	39.466	-0.205137
1.05333	39.483	-0.205423
1.05500	39.499	-0.205715
1.05667	39.515	-0.206032
1.05833	39.532	-0.206356
1.06000	39.549	-0.206590
1.06167	39.565	-0.206716
1.06333	39.581	-0.206820
1.06500	39.599	-0.206910
1.06667	39.614	-0.206987
1.06833	39.631	-0.207063
1.07000	39.648	-0.207161
1.07167	39.665	-0.207357
1.07333	39.681	-0.207583
1.07500	39.698	-0.207792
1.07667	39.715	-0.208070
1.07833	39.731	-0.208273
1.08000	39.748	-0.208471
1.08167	39.765	-0.208614
1.08333	39.781	-0.208821
1.08500	39.797	-0.209145
1.08667	39.815	-0.209469
1.08833	39.830	-0.209817
1.09000	39.848	-0.210167
1.09167	39.864	-0.210389
1.09333	39.881	-0.210554
1.09500	39.898	-0.210749
1.09667	39.915	-0.210904
1.09833	39.931	-0.211012
1.10000	39.949	-0.211093
1.10167	39.964	-0.211182
1.10333	39.981	-0.211281
1.10500	39.997	-0.211386
1.10667	40.014	-0.211522
1.10833	40.030	-0.211699
1.11000	40.047	-0.211887
1.11167	40.063	-0.212168
1.11333	40.081	-0.212400
1.11500	40.096	-0.212539
1.11667	40.114	-0.212646
1.11833	40.129	-0.212803
1.12000	40.146	-0.212939
1.12167	40.163	-0.213080
1.12333	40.180	-0.213288
1.12500	40.196	-0.213472
1.12667	40.213	-0.213644
1.12833	40.229	-0.213854
1.13000	40.247	-0.214141
1.13167	40.264	-0.214496
1.13333	40.280	-0.214787
1.13500	40.297	-0.215042
1.13667	40.314	-0.215238
1.13833	40.330	-0.215427
1.14000	40.347	-0.215577
1.14167	40.363	-0.215750
1.14333	40.379	-0.215892
1.14500	40.397	-0.215959
1.14667	40.413	-0.216008
1.14833	40.429	-0.216072
1.15000	40.445	-0.216160
1.15167	40.462	-0.216266
1.15333	40.479	-0.216385
1.15500	40.496	-0.216524
1.15667	40.513	-0.216666
1.15833	40.529	-0.216875
1.16000	40.545	-0.217096
1.16167	40.562	-0.217257
1.16333	40.579	-0.217378
1.16500	40.595	-0.217512
1.16667	40.612	-0.217691
1.16833	40.628	-0.217831
1.17000	40.645	-0.217992
1.17167	40.662	-0.218125
1.17333	40.679	-0.218291
1.17500	40.695	-0.218440
1.17667	40.711	-0.218596
1.17833	40.729	-0.218771
1.18000	40.745	-0.218920
1.18167	40.761	-0.219045
1.18333	40.778	-0.219192
1.18500	40.795	-0.219287
1.18667	40.810	-0.219396
1.18833	40.828	-0.219504
1.19000	40.845	-0.219583
1.19167	40.861	-0.219647
1.19333	40.878	-0.219685
1.19500	40.894	-0.219759
1.19667	40.911	-0.219870
1.19833	40.927	-0.220033
1.20000	40.944	-0.220271
1.20167	40.962	-0.220467
1.20333	40.978	-0.220564
1.20500	40.995	-0.220676
1.20667	41.012	-0.220809
1.20833	41.028	-0.220937
1.21000	41.044	-0.221046
1.21167	41.061	-0.221126
1.21333	41.078	-0.221246
1.21500	41.094	-0.221375
1.21667	41.111	-0.221530
1.21833	41.127	-0.221768
1.22000	41.144	-0.222024
1.22167	41.161	-0.222304
1.22333	41.178	-0.222534
1.22500	41.194	-0.222725
1.22667	41.211	-0.222904
1.22833	41.228	-0.223178
1.23000	41.243	-0.223435
1.23167	41.261	-0.223771
1.23333	41.277	-0.224077
1.23500	41.293	-0.224270
1.23667	41.310	-0.224454
1.23833	41.326	-0.224627
1.24000	41.343	-0.224796
1.24167	41.359	-0.224929
1.24333	41.376	-0.225029
1.24500	41.392	-0.225082
1.24667	41.409	-0.225190
1.24833	41.426	-0.225325
1.25000	41.443	-0.225513
1.25167	41.459	-0.225778
1.25333	41.476	-0.226026
1.25500	41.492	-0.226306
1.25667	41.509	-0.226543
1.25833	41.527	-0.226782
1.26000	41.543	-0.226979
1.26167	41.558	-0.227166
1.26333	41.577	-0.227268
1.26500	41.593	-0.227332
1.26667	41.609	-0.227364
1.26833	41.625	-0.227399
1.27000	41.643	-0.227423
1.27167	41.660	-0.227453
1.27333	41.676	-0.227511
1.27500	41.692	-0.227590
1.27667	41.709	-0.227716
1.27833	41.726	-0.227873
1.28000	41.742	-0.228089
1.28167	41.760	-0.228252
1.28333	41.776	-0.228380
1.28500	41.793	-0.228506
1.28667	41.809	-0.228606
1.28833	41.826	-0.228712
1.29000	41.843	-0.228792
1.29167	41.860	-0.228879
1.29333	41.876	-0.228976
1.29500	41.893	-0.229085
1.29667	41.909	-0.229171
1.29833	41.926	-0.229239
1.30000	41.942	-0.229289
1.30167	41.958	-0.229349
1.30333	41.976	-0.229388
1.30500	41.992	-0.229423
1.30667	42.008	-0.229470
1.30833	42.024	-0.229496
1.31000	42.042	-0.229524
1.31167	42.058	-0.229548
1.31333	42.075	-0.229584
1.31500	42.092	-0.229607
1.31667	42.108	-0.229638
1.31833	42.125	-0.229668
1.32000	42.141	-0.229710
1.32167	42.159	-0.229757
1.32333	42.175	-0.229812
1.32500	42.193	-0.229915
1.32667	42.208	-0.230016
1.32833	42.225	-0.230137
1.33000	42.242	-0.230255
1.33167	42.259	-0.230354
1.33333	42.275	-0.230442
1.33500	42.292	-0.230516
1.33667	42.309	-0.230555
1.33833	42.325	-0.230579
1.34000	42.342	-0.230608
1.34167	42.358	-0.230632
1.34333	42.375	-0.230656
1.34500	42.391	-0.230680
1.34667	42.408	-0.230720
1.34833	42.424	-0.230789
1.35000	42.440	-0.230873
1.35167	42.457	-0.230987
1.35333	42.474	-0.231178
1.35500	42.491	-0.231331
1.35667	42.507	-0.231465
1.35833	42.524	-0.231564
1.36000	42.541	-0.231618
1.36167	42.556	-0.231669
1.36333	42.574	-0.231713
1.36500	42.590	-0.231774
1.36667	42.607	-0.231876
1.36833	42.625	-0.232063
1.37000	42.641	-0.232346
1.37167	42.658	-0.232684
1.37333	42.674	-0.232938
1.37500	42.690	-0.233143
1.37667	42.708	-0.233255
1.37833	42.724	-0.233389
1.38000	42.740	-0.233491
1.38167	42.757	-0.233569
1.38333	42.774	-0.233632
1.38500	42.790	-0.233704
1.38667	42.807	-0.233807
1.38833	42.823	-0.233905
1.39000	42.840	-0.233993
1.39167	42.856	-0.234038
1.39333	42.873	-0.234096
1.39500	42.890	-0.234128
1.39667	42.906	-0.234220
1.39833	42.922	-0.234360
1.40000	42.940	-0.234503
1.40167	42.956	-0.234700
1.40333	42.972	-0.234957
1.40500	42.991	-0.235130
1.40667	43.008	-0.235252
1.40833	43.024	-0.235343
1.41000	43.040	-0.235417
1.41167	43.056	-0.235474
1.41333	43.074	-0.235580
1.41500	43.091	-0.235661
1.41667	43.107	-0.235687
1.41833	43.123	-0.235786
1.42000	43.140	-0.236028
1.42167	43.157	-0.236388
1.42333	43.172	-0.236833
1.42500	43.190	-0.237254
1.42667	43.207	-0.237678
1.42833	43.224	-0.238028
1.43000	43.240	-0.238246
1.43167	43.256	-0.238406
1.43333	43.273	-0.238513
1.43500	43.290	-0.238580
1.43667	43.307	-0.238637
1.43833	43.323	-0.238727
1.44000	43.341	-0.238837
1.44167	43.356	-0.238929
1.44333	43.373	-0.239011
1.44500	43.389	-0.239083
1.44667	43.406	-0.239144
1.44833	43.423	-0.239211
1.45000	43.439	-0.239287
1.45167	43.457	-0.239373
1.45333	43.473	-0.239456
1.45500	43.490	-0.239530
1.45667	43.506	-0.239570
1.45833	43.523	-0.239610
1.46000	43.539	-0.239638
1.46167	43.557	-0.239661
1.46333	43.572	-0.239682
1.46500	43.589	-0.239706
1.46667	43.606	-0.239728
1.46833	43.623	-0.239754
1.47000	43.639	-0.239790
1.47167	43.655	-0.239887
1.47333	43.672	-0.240056
1.47500	43.688	-0.240263
1.47667	43.705	-0.240468
1.47833	43.722	-0.240692
1.48000	43.739	-0.240867
1.48167	43.757	-0.241030
1.48333	43.772	-0.241125
1.48500	43.789	-0.241183
1.48667	43.806	-0.241245
1.48833	43.822	-0.241277
1.49000	43.838	-0.241350
1.49167	43.855	-0.241373
1.49333	43.872	-0.241440
1.49500	43.889	-0.241464
1.49667	43.905	-0.241493
1.49833	43.922	-0.241517
1.50000	43.940	-0.241547
1.50167	43.956	-0.241580
1.50333	43.972	-0.241609
1.50500	43.989	-0.241652
1.50667	44.006	-0.241724
1.50833	44.022	-0.241806
1.51000	44.038	-0.241865
1.51167	44.055	-0.241905
1.51333	44.073	-0.241934
1.51500	44.089	-0.242015
1.51667	44.106	-0.242058
1.51833	44.122	-0.242092
1.52000	44.139	-0.242119
1.52167	44.156	-0.242140
1.52333	44.172	-0.242157
1.52500	44.188	-0.242175
1.52667	44.206	-0.242195
1.52833	44.223	-0.242223
1.53000	44.239	-0.242246
1.53167	44.256	-0.242272
1.53333	44.272	-0.242346
1.53500	44.289	-0.242482
1.53667	44.306	-0.242638
1.53833	44.321	-0.242721
1.54000	44.339	-0.242768
1.54167	44.356	-0.242836
1.54333	44.373	-0.242933
1.54500	44.389	-0.242982
1.54667	44.406	-0.243028
1.54833	44.422	-0.243100
1.55000	44.439	-0.243195
1.55167	44.456	-0.243298
1.55333	44.472	-0.243411
1.55500	44.489	-0.243458
1.55667	44.505	-0.243514
1.55833	44.523	-0.243542
1.56000	44.540	-0.243572
1.56167	44.555	-0.243610
1.56333	44.573	-0.243643
1.56500	44.590	-0.243672
1.56667	44.606	-0.243701
1.56833	44.623	-0.243732
1.57000	44.639	-0.243764
1.57167	44.657	-0.243811
1.57333	44.673	-0.243850
1.57500	44.689	-0.243882
1.57667	44.706	-0.243919
1.57833	44.723	-0.243952
1.58000	44.740	-0.243985
1.58167	44.756	-0.244019
1.58333	44.772	-0.244051
1.58500	44.789	-0.244082
1.58667	44.806	-0.244113
1.58833	44.822	-0.244138
1.59000	44.840	-0.244162
1.59167	44.856	-0.244192
1.59333	44.873	-0.244223
1.59500	44.890	-0.244273
1.59667	44.905	-0.244365
1.59833	44.924	-0.244458
1.60000	44.939	-0.244548
1.60167	44.956	-0.244617
1.60333	44.972	-0.244650
1.60500	44.989	-0.244680
1.60667	45.006	-0.244703
1.60833	45.022	-0.244721
1.61000	45.039	-0.244740
1.61167	45.055	-0.244759
1.61333	45.072	-0.244782
1.61500	45.089	-0.244807
1.61667	45.106	-0.244839
1.61833	45.122	-0.244874
1.62000	45.140	-0.244909
1.62167	45.156	-0.244950
1.62333	45.172	-0.245042
1.62500	45.189	-0.245138
1.62667	45.206	-0.245183
1.62833	45.222	-0.245215
1.63000	45.240	-0.245250
1.63167	45.256	-0.245283
1.63333	45.272	-0.245316
1.63500	45.289	-0.245348
1.63667	45.305	-0.245379
1.63833	45.322	-0.245408
1.64000	45.339	-0.245438
1.64167	45.357	-0.245471
1.64333	45.371	-0.245506
1.64500	45.389	-0.245541
1.64667	45.405	-0.245584
1.64833	45.423	-0.245631
1.65000	45.440	-0.245668
1.65167	45.456	-0.245702
1.65333	45.473	-0.245735
1.65500	45.489	-0.245765
1.65667	45.505	-0.245800
1.65833	45.522	-0.245836
1.66000	45.539	-0.245872
1.66167	45.555	-0.245906
1.66333	45.572	-0.245939
1.66500	45.589	-0.245973
1.66667	45.605	-0.246007
1.66833	45.623	-0.246040
1.67000	45.639	-0.246073
1.67167	45.656	-0.246101
1.67333	45.673	-0.246121
1.67500	45.690	-0.246142
1.67667	45.706	-0.246163
1.67833	45.724	-0.246187
1.68000	45.739	-0.246213
1.68167	45.757	-0.246242
1.68333	45.773	-0.246274
1.68500	45.790	-0.246309
1.68667	45.807	-0.246351
1.68833	45.823	-0.246450
1.69000	45.839	-0.246543
1.69167	45.856	-0.246580
1.69333	45.873	-0.246617
1.69500	45.889	-0.246652
1.69667	45.905	-0.246686
1.69833	45.922	-0.246721
1.70000	45.939	-0.246759
1.70167	45.955	-0.246833
1.70333	45.972	-0.246932
1.70500	45.990	-0.246983
1.70667	46.006	-0.247021
1.70833	46.023	-0.247059
1.71000	46.040	-0.247096
1.71167	46.057	-0.247131
1.71333	46.073	-0.247163
1.71500	46.090	-0.247191
1.71667	46.106	-0.247223
1.71833	46.124	-0.247254
1.72000	46.139	-0.247287
1.72167	46.156	-0.247333
1.72333	46.172	-0.247370
1.72500	46.189	-0.247403
1.72667	46.207	-0.247439
1.72833	46.225	-0.247475
1.73000	46.240	-0.247510
1.73167	46.257	-0.247544
1.73333	46.273	-0.247579
1.73500	46.290	-0.247616
1.73667	46.307	-0.247652
1.73833	46.324	-0.247690
1.74000	46.340	-0.247730
1.74167	46.356	-0.247767
1.74333	46.373	-0.247796
1.74500	46.392	-0.247821
1.74667	46.407	-0.247843
1.74833	46.423	-0.247864
1.75000	46.439	-0.247886
1.75167	46.456	-0.247903
1.75333	46.474	-0.247922
1.75500	46.489	-0.247942
1.75667	46.506	-0.247968
1.75833	46.523	-0.248000
1.76000	46.540	-0.248034
1.76167	46.556	-0.248067
1.76333	46.572	-0.248103
1.76500	46.589	-0.248138
1.76667	46.605	-0.248175
1.76833	46.622	-0.248231
1.77000	46.638	-0.248277
1.77167	46.655	-0.248313
1.77333	46.673	-0.248347
1.77500	46.689	-0.248380
1.77667	46.706	-0.248414
1.77833	46.723	-0.248449
1.78000	46.739	-0.248485
1.78167	46.755	-0.248516
1.78333	46.773	-0.248548
1.78500	46.789	-0.248580
1.78667	46.805	-0.248611
1.78833	46.822	-0.248644
1.79000	46.838	-0.248676
1.79167	46.854	-0.248704
1.79333	46.870	-0.248733
1.79500	46.888	-0.248765
1.79667	46.905	-0.248802
1.79833	46.922	-0.248839
1.80000	46.938	-0.248871
1.80167	46.955	-0.248901
1.80333	46.972	-0.248930
1.80500	46.988	-0.248961
1.80667	47.006	-0.248992
1.80833	47.023	-0.249021
1.81000	47.040	-0.249047
1.81167	47.057	-0.249072
1.81333	47.073	-0.249100
1.81500	47.090	-0.249130
1.81667	47.107	-0.249162
1.81833	47.123	-0.249198
1.82000	47.140	-0.249266
1.82167	47.156	-0.249315
1.82333	47.173	-0.249356
1.82500	47.188	-0.249416
1.82667	47.206	-0.249491
1.82833	47.222	-0.249571
1.83000	47.239	-0.249628
1.83167	47.255	-0.249665
1.83333	47.272	-0.249698
1.83500	47.288	-0.249731
1.83667	47.306	-0.249765
1.83833	47.322	-0.249802
1.84000	47.338	-0.249840
1.84167	47.356	-0.249877
1.84333	47.373	-0.249911
1.84500	47.389	-0.249946
1.84667	47.406	-0.249980
1.84833	47.423	-0.250014
1.85000	47.440	-0.250043
1.85167	47.457	-0.250071
1.85333	47.474	-0.250105
1.85500	47.490	-0.250138
1.85667	47.508	-0.250173
1.85833	47.525	-0.250228
1.86000	47.541	-0.250277
1.86167	47.558	-0.250315
1.86333	47.575	-0.250350
1.86500	47.591	-0.250383
1.86667	47.608	-0.250416
1.86833	47.624	-0.250444
1.87000	47.641	-0.250473
1.87167	47.658	-0.250501
1.87333	47.673	-0.250528
1.87500	47.690	-0.250556
1.87667	47.706	-0.250589
1.87833	47.723	-0.250624
1.88000	47.739	-0.250662
1.88167	47.756	-0.250694
1.88333	47.774	-0.250722
1.88500	47.791	-0.250751
1.88667	47.806	-0.250780
1.88833	47.824	-0.250812
1.89000	47.840	-0.250842
1.89167	47.857	-0.250873
1.89333	47.873	-0.250905
1.89500	47.889	-0.250940
1.89667	47.906	-0.250978
1.89833	47.922	-0.251053
1.90000	47.939	-0.251135
1.90167	47.956	-0.251199
1.90333	47.973	-0.251237
1.90500	47.989	-0.251283
1.90667	48.005	-0.251322
1.90833	48.023	-0.251380
1.91000	48.040	-0.251457
1.91167	48.056	-0.251505
1.91333	48.074	-0.251541
1.91500	48.090	-0.251572
1.91667	48.107	-0.251597
1.91833	48.123	-0.251622
1.92000	48.140	-0.251647
1.92167	48.156	-0.251670
1.92333	48.173	-0.251696
1.92500	48.189	-0.251725
1.92667	48.207	-0.251755
1.92833	48.222	-0.251788
1.93000	48.239	-0.251825
1.93167	48.256	-0.251858
1.93333	48.272	-0.251888
1.93500	48.290	-0.251920
1.93667	48.306	-0.251954
1.93833	48.323	-0.252014
1.94000	48.339	-0.252051
1.94167	48.356	-0.252092
1.94333	48.372	-0.252154
1.94500	48.390	-0.252217
1.94667	48.406	-0.252260
1.94833	48.422	-0.252316
1.95000	48.440	-0.252355
1.95167	48.457	-0.252393
1.95333	48.473	-0.252435
1.95500	48.490	-0.252513
1.95667	48.507	-0.252597
1.95833	48.523	-0.252636
1.96000	48.540	-0.252669
1.96167	48.556	-0.252703
1.96333	48.573	-0.252741
1.96500	48.590	-0.252778
1.96667	48.606	-0.252816
1.96833	48.623	-0.252855
1.97000	48.640	-0.252899
1.97167	48.656	-0.252989
1.97333	48.674	-0.253110
1.97500	48.689	-0.253228
1.97667	48.706	-0.253323
1.97833	48.722	-0.253363
1.98000	48.738	-0.253402
1.98167	48.755	-0.253439
1.98333	48.773	-0.253477
1.98500	48.790	-0.253516
1.98667	48.806	-0.253555
1.98833	48.823	-0.253593
1.99000	48.840	-0.253632
1.99167	48.856	-0.253674
1.99333	48.873	-0.253711
1.99500	48.890	-0.253748
1.99667	48.906	-0.253785
1.99833	48.923	-0.253826
2.00000	48.940	-0.253871
2.00167	48.957	-0.253934
2.00333	48.973	-0.253994
2.00500	48.989	-0.254063
2.00667	49.007	-0.254142
2.00833	49.023	-0.254224
2.01000	49.040	-0.254323
2.01167	49.057	-0.254372
2.01333	49.073	-0.254413
2.01500	49.090	-0.254452
2.01667	49.107	-0.254494
2.01833	49.124	-0.254551
2.02000	49.140	-0.254640
2.02167	49.155	-0.254781
2.02333	49.173	-0.254914
2.02500	49.189	-0.255037
2.02667	49.206	-0.255132
2.02833	49.222	-0.255226
2.03000	49.239	-0.255284
2.03167	49.256	-0.255324
2.03333	49.273	-0.255395
2.03500	49.290	-0.255434
2.03667	49.306	-0.255473
2.03833	49.322	-0.255514
2.04000	49.340	-0.255555
2.04167	49.356	-0.255597
2.04333	49.372	-0.255639
2.04500	49.389	-0.255681
2.04667	49.406	-0.255723
2.04833	49.422	-0.255765
2.05000	49.440	-0.255882
2.05167	49.457	-0.256036
2.05333	49.473	-0.256183
2.05500	49.489	-0.256419
2.05667	49.506	-0.256645
2.05833	49.523	-0.256848
2.06000	49.539	-0.257115
2.06167	49.556	-0.257320
2.06333	49.573	-0.257396
2.06500	49.590	-0.257434
2.06667	49.606	-0.257472
2.06833	49.623	-0.257512
2.07000	49.640	-0.257551
2.07167	49.656	-0.257589
2.07333	49.673	-0.257628
2.07500	49.690	-0.257664
2.07667	49.706	-0.257722
2.07833	49.723	-0.257760
2.08000	49.740	-0.257814
2.08167	49.757	-0.257854
2.08333	49.774	-0.257909
2.08500	49.789	-0.257968
2.08667	49.806	-0.258032
2.08833	49.823	-0.258080
2.09000	49.839	-0.258181
2.09167	49.857	-0.258293
2.09333	49.874	-0.258391
2.09500	49.890	-0.258485
2.09667	49.906	-0.258564
2.09833	49.923	-0.258629
2.10000	49.940	-0.258699
2.10167	49.956	-0.258814
2.10333	49.973	-0.258939
2.10500	49.990	-0.259105
2.10667	50.006	-0.259235
2.10833	50.023	-0.259331
2.11000	50.040	-0.259387
2.11167	50.056	-0.259441
2.11333	50.073	-0.259486
2.11500	50.090	-0.259544
2.11667	50.106	-0.259590
2.11833	50.122	-0.259642
2.12000	50.139	-0.259735
2.12167	50.157	-0.259835
2.12333	50.172	-0.259963
2.12500	50.189	-0.260065
2.12667	50.206	-0.260131
2.12833	50.222	-0.260213
2.13000	50.239	-0.260266
2.13167	50.255	-0.260305
2.13333	50.272	-0.260335
2.13500	50.289	-0.260365
2.13667	50.305	-0.260396
2.13833	50.322	-0.260423
2.14000	50.339	-0.260446
2.14167	50.355	-0.260471
2.14333	50.372	-0.260501
2.14500	50.388	-0.260539
2.14667	50.405	-0.260574
2.14833	50.421	-0.260614
2.15000	50.438	-0.260652
2.15167	50.456	-0.260707
2.15333	50.472	-0.260838
2.15500	50.489	-0.260996
2.15667	50.505	-0.261085
2.15833	50.522	-0.261154
2.16000	50.540	-0.261236
2.16167	50.556	-0.261362
2.16333	50.573	-0.261524
2.16500	50.589	-0.261686
2.16667	50.606	-0.261792
2.16833	50.622	-0.261851
2.17000	50.639	-0.261890
2.17167	50.656	-0.261929
2.17333	50.671	-0.261965
2.17500	50.689	-0.261995
2.17667	50.705	-0.262026
2.17833	50.722	-0.262055
2.18000	50.739	-0.262085
2.18167	50.755	-0.262119
2.18333	50.772	-0.262155
2.18500	50.788	-0.262194
2.18667	50.805	-0.262255
2.18833	50.821	-0.262346
2.19000	50.838	-0.262425
2.19167	50.855	-0.262505
2.19333	50.872	-0.262545
2.19500	50.888	-0.262585
2.19667	50.905	-0.262629
2.19833	50.922	-0.262672
2.20000	50.939	-0.262738
2.20167	50.956	-0.262776
2.20333	50.972	-0.262814
2.20500	50.988	-0.262854
2.20667	51.006	-0.262894
2.20833	51.022	-0.262929
2.21000	51.039	-0.262966
2.21167	51.055	-0.263000
2.21333	51.072	-0.263034
2.21500	51.088	-0.263068
2.21667	51.104	-0.263103
2.21833	51.122	-0.263139
2.22000	51.139	-0.263172
2.22167	51.156	-0.263206
2.22333	51.172	-0.263242
2.22500	51.190	-0.263275
2.22667	51.207	-0.263307
2.22833	51.223	-0.263337
2.23000	51.239	-0.263370
2.23167	51.255	-0.263406
2.23333	51.272	-0.263445
2.23500	51.289	-0.263485
2.23667	51.306	-0.263525
2.23833	51.322	-0.263563
2.24000	51.339	-0.263599
2.24167	51.356	-0.263630
2.24333	51.372	-0.263661
2.24500	51.388	-0.263690
2.24667	51.405	-0.263719
2.24833	51.421	-0.263747
2.25000	51.439	-0.263775
2.25167	51.455	-0.263806
2.25333	51.472	-0.263837
2.25500	51.489	-0.263868
2.25667	51.505	-0.263902
2.25833	51.522	-0.263934
2.26000	51.539	-0.263963
2.26167	51.556	-0.263994
2.26333	51.573	-0.264024
2.26500	51.590	-0.264056
2.26667	51.607	-0.264087
2.26833	51.623	-0.264115
2.27000	51.640	-0.264144
2.27167	51.656	-0.264168
2.27333	51.673	-0.264190
2.27500	51.690	-0.264213
2.27667	51.705	-0.264236
2.27833	51.723	-0.264258
2.28000	51.739	-0.264284
2.28167	51.756	-0.264315
2.28333	51.773	-0.264352
2.28500	51.789	-0.264399
2.28667	51.806	-0.264453
2.28833	51.823	-0.264525
2.29000	51.838	-0.264561
2.29167	51.855	-0.264595
2.29333	51.873	-0.264625
2.29500	51.889	-0.264653
2.29667	51.906	-0.264681
2.29833	51.922	-0.264708
2.30000	51.939	-0.264736
2.30167	51.956	-0.264767
2.30333	51.972	-0.264796
2.30500	51.989	-0.264827
2.30667	52.005	-0.264860
2.30833	52.022	-0.264893
2.31000	52.039	-0.264924
2.31167	52.055	-0.264950
2.31333	52.072	-0.264979
2.31500	52.089	-0.265004
2.31667	52.106	-0.265029
2.31833	52.122	-0.265056
2.32000	52.138	-0.265085
2.32167	52.156	-0.265115
2.32333	52.172	-0.265146
2.32500	52.188	-0.265194
2.32667	52.205	-0.265230
2.32833	52.222	-0.265267
2.33000	52.238	-0.265306
2.33167	52.255	-0.265360
2.33333	52.272	-0.265395
2.33500	52.289	-0.265432
2.33667	52.304	-0.265468
2.33833	52.322	-0.265509
2.34000	52.338	-0.265546
2.34167	52.355	-0.265583
2.34333	52.372	-0.265618
2.34500	52.388	-0.265652
2.34667	52.406	-0.265687
2.34833	52.422	-0.265726
2.35000	52.438	-0.265763
2.35167	52.456	-0.265802
2.35333	52.472	-0.265858
2.35500	52.489	-0.266021
2.35667	52.505	-0.266167
2.35833	52.522	-0.266294
2.36000	52.539	-0.266337
2.36167	52.555	-0.266375
2.36333	52.572	-0.266411
2.36500	52.588	-0.266447
2.36667	52.605	-0.266484
2.36833	52.622	-0.266516
2.37000	52.638	-0.266549
2.37167	52.656	-0.266582
2.37333	52.672	-0.266618
2.37500	52.689	-0.266652
2.37667	52.705	-0.266685
2.37833	52.721	-0.266720
2.38000	52.738	-0.266756
2.38167	52.755	-0.266812
2.38333	52.771	-0.266918
2.38500	52.788	-0.267001
2.38667	52.804	-0.267040
2.38833	52.822	-0.267104
2.39000	52.839	-0.267239
2.39167	52.856	-0.267378
2.39333	52.872	-0.267469
2.39500	52.889	-0.267518
2.39667	52.905	-0.267563
2.39833	52.923	-0.267599
2.40000	52.939	-0.267637
2.40167	52.955	-0.267683
2.40333	52.972	-0.267720
2.40500	52.989	-0.267754
2.40667	53.005	-0.267798
2.40833	53.021	-0.267849
2.41000	53.039	-0.268020
2.41167	53.054	-0.268363
2.41333	53.071	-0.268777
2.41500	53.087	-0.269066
2.41667	53.104	-0.269199
2.41833	53.122	-0.269239
2.42000	53.139	-0.269275
2.42167	53.154	-0.269304
2.42333	53.171	-0.269332
2.42500	53.188	-0.269361
2.42667	53.205	-0.269385
2.42833	53.222	-0.269412
2.43000	53.238	-0.269446
2.43167	53.254	-0.269546
2.43333	53.272	-0.269780
2.43500	53.289	-0.270037
2.43667	53.306	-0.270253
2.43833	53.321	-0.270498
2.44000	53.338	-0.270758
2.44167	53.355	-0.270909
2.44333	53.371	-0.271027
2.44500	53.388	-0.271076
2.44667	53.405	-0.271118
2.44833	53.422	-0.271150
2.45000	53.439	-0.271184
2.45167	53.455	-0.271240
2.45333	53.471	-0.271328
2.45500	53.488	-0.271451
2.45667	53.505	-0.271590
2.45833	53.522	-0.271731
2.46000	53.538	-0.271891
2.46167	53.556	-0.272068
2.46333	53.571	-0.272284
2.46500	53.587	-0.272600
2.46667	53.603	-0.273047
2.46833	53.621	-0.273562
2.47000	53.638	-0.274138
2.47167	53.654	-0.274698
2.47333	53.671	-0.275002
2.47500	53.688	-0.275263
2.47667	53.704	-0.275451
2.47833	53.721	-0.275587
2.48000	53.738	-0.275666
2.48167	53.755	-0.275703
2.48333	53.771	-0.275740
2.48500	53.787	-0.275854
2.48667	53.803	-0.275951
2.48833	53.820	-0.276117
2.49000	53.836	-0.276352
2.49167	53.852	-0.276637
2.49333	53.868	-0.276998
2.49500	53.885	-0.277454
2.49667	53.902	-0.277923
2.49833	53.919	-0.278324
2.50000	53.936	-0.278701
2.50167	53.953	-0.279094
2.50333	53.969	-0.279533
2.50500	53.986	-0.279887
2.50667	54.002	-0.280159
2.50833	54.020	-0.280369
2.51000	54.035	-0.280620
2.51167	54.052	-0.280957
2.51333	54.069	-0.281273
2.51500	54.086	-0.281617
2.51667	54.101	-0.281928
2.51833	54.119	-0.282278
2.52000	54.135	-0.282853
2.52167	54.152	-0.283523
2.52333	54.168	-0.284199
2.52500	54.184	-0.284967
2.52667	54.201	-0.285744
2.52833	54.217	-0.286406
2.53000	54.234	-0.287105
2.53167	54.251	-0.287785
2.53333	54.267	-0.288580
2.53500	54.283	-0.289190
2.53667	54.301	-0.289826
2.53833	54.317	-0.290346
2.54000	54.334	-0.290651
2.54167	54.351	-0.290978
2.54333	54.367	-0.291377
2.54500	54.384	-0.291919
2.54667	54.399	-0.292558
2.54833	54.416	-0.293279
2.55000	54.433	-0.294031
2.55167	54.450	-0.294847
2.55333	54.466	-0.295737
2.55500	54.482	-0.297061
2.55667	54.499	-0.298356
2.55833	54.514	-0.299684
2.56000	54.532	-0.300844
2.56167	54.549	-0.302401
2.56333	54.565	-0.303358
2.56500	54.581	-0.304151
2.56667	54.597	-0.304891
2.56833	54.614	-0.305577
2.57000	54.630	-0.306110
2.57167	54.647	-0.306572
2.57333	54.663	-0.307186
2.57500	54.680	-0.308168
2.57667	54.696	-0.309625
2.57833	54.714	-0.311239
2.58000	54.730	-0.312528
2.58167	54.747	-0.313566
2.58333	54.764	-0.314545
2.58500	54.779	-0.316044
2.58667	54.795	-0.317279
2.58833	54.812	-0.318159
2.59000	54.829	-0.319599
2.59167	54.844	-0.321357
2.59333	54.860	-0.323754
2.59500	54.877	-0.326343
2.59667	54.894	-0.328724
2.59833	54.909	-0.330329
2.60000	54.925	-0.332271
2.60167	54.942	-0.333470
2.60333	54.958	-0.335305
2.60500	54.976	-0.337507
2.60667	54.990	-0.339479
2.60833	55.007	-0.341738
2.61000	55.023	-0.343799
2.61167	55.038	-0.345884
2.61333	55.055	-0.349036
2.61500	55.072	-0.352457
2.61667	55.089	-0.354939
2.61833	55.104	-0.357474
2.62000	55.120	-0.359701
2.62167	55.136	-0.362354
2.62333	55.153	-0.364722
2.62500	55.168	-0.367658
2.62667	55.185	-0.370617
2.62833	55.200	-0.373209
2.63000	55.217	-0.376280
2.63167	55.232	-0.380058
2.63333	55.247	-0.384235
2.63500	55.264	-0.388039
2.63667	55.281	-0.391840
2.63833	55.296	-0.395827
2.64000	55.311	-0.399892
2.64167	55.327	-0.403743
2.64333	55.343	-0.407890
2.64500	55.360	-0.412006
2.64667	55.376	-0.416805
2.64833	55.393	-0.421734
2.65000	55.407	-0.427295
2.65167	55.422	-0.432993
2.65333	55.438	-0.438411
2.65500	55.455	-0.444642
2.65667	55.470	-0.450010
2.65833	55.486	-0.455970
2.66000	55.501	-0.461216
2.66167	55.516	-0.467084
2.66333	55.532	-0.472514
2.66500	55.548	-0.478229
2.66667	55.564	-0.484414
2.66833	55.579	-0.490371
2.67000	55.594	-0.497188
2.67167	55.609	-0.503641
2.67333	55.624	-0.510729
2.67500	55.640	-0.517508
2.67667	55.655	-0.525201
2.67833	55.670	-0.532705
2.68000	55.685	-0.540956
2.68167	55.700	-0.549131
2.68333	55.716	-0.557309
2.68500	55.731	-0.565914
2.68667	55.746	-0.574055
2.68833	55.760	-0.582633
2.69000	55.775	-0.591397
2.69167	55.789	-0.600220
2.69333	55.805	-0.608735
2.69500	55.820	-0.617140
2.69667	55.834	-0.626032
2.69833	55.849	-0.635285
2.70000	55.862	-0.644162
2.70167	55.878	-0.653530
2.70333	55.892	-0.663595
2.70500	55.906	-0.673233
2.70667	55.920	-0.682961
2.70833	55.935	-0.692660
2.71000	55.949	-0.702624
2.71167	55.964	-0.712666
2.71333	55.977	-0.723670
2.71500	55.992	-0.734245
2.71667	56.006	-0.745115
2.71833	56.021	-0.755623
2.72000	56.035	-0.765404
2.72167	56.048	-0.776350
2.72333	56.062	-0.787613
2.72500	56.076	-0.798330
2.72667	56.088	-0.808637
2.72833	56.103	-0.817736
2.73000	56.118	-0.827447
2.73167	56.132	-0.837459
2.73333	56.146	-0.847887
2.73500	56.158	-0.858008
2.73667	56.173	-0.868433
2.73833	56.187	-0.878381
2.74000	56.200	-0.888996
2.74167	56.214	-0.899812
2.74333	56.227	-0.911421
2.74500	56.241	-0.922711
2.74667	56.254	-0.933596
2.74833	56.267	-0.944386
2.75000	56.281	-0.954925
2.75167	56.295	-0.966272
2.75333	56.308	-0.977301
2.75500	56.322	-0.988019
2.75667	56.335	-0.998878
2.75833	56.348	-1.00956
2.76000	56.361	-1.01979
2.76167	56.375	-1.03032
2.76333	56.388	-1.04114
2.76500	56.401	-1.05175
2.76667	56.414	-1.06229
2.76833	56.427	-1.07293
2.77000	56.440	-1.08386
2.77167	56.455	-1.09502
2.77333	56.468	-1.10547
2.77500	56.481	-1.11614
2.77667	56.493	-1.12713
2.77833	56.507	-1.13783
2.78000	56.520	-1.14818
2.78167	56.533	-1.15882
2.78333	56.546	-1.16960
2.78500	56.559	-1.18003
2.78667	56.572	-1.19113
2.78833	56.585	-1.20249
2.79000	56.597	-1.21407
2.79167	56.610	-1.22533
2.79333	56.623	-1.23709
2.79500	56.636	-1.24895
2.79667	56.649	-1.26060
2.79833	56.662	-1.27224
2.80000	56.675	-1.28383
2.80167	56.688	-1.29577
2.80333	56.701	-1.30747
2.80500	56.714	-1.31847
2.80667	56.727	-1.32919
2.80833	56.739	-1.34025
2.81000	56.752	-1.35139
2.81167	56.765	-1.36253
2.81333	56.777	-1.37383
2.81500	56.789	-1.38518
2.81667	56.803	-1.39678
2.81833	56.815	-1.40833
2.82000	56.828	-1.42044
2.82167	56.839	-1.43291
2.82333	56.852	-1.44471
2.82500	56.865	-1.45597
2.82667	56.878	-1.46758
2.82833	56.891	-1.47910
2.83000	56.903	-1.49038
2.83167	56.916	-1.50169
2.83333	56.928	-1.51324
2.83500	56.942	-1.52508
2.83667	56.955	-1.53674
2.83833	56.966	-1.54838
2.84000	56.979	-1.55991
2.84167	56.992	-1.57148
2.84333	57.003	-1.58320
2.84500	57.017	-1.59443
2.84667	57.029	-1.60635
2.84833	57.040	-1.61775
2.85000	57.053	-1.62934
2.85167	57.067	-1.64074
2.85333	57.079	-1.65231
2.85500	57.090	-1.66416
2.85667	57.102	-1.67568
2.85833	57.115	-1.68667
2.86000	57.128	-1.69779
2.86167	57.140	-1.70894
2.86333	57.154	-1.71941
2.86500	57.166	-1.72959
2.86667	57.177	-1.74000
2.86833	57.191	-1.74987
2.87000	57.203	-1.75941
2.87167	57.216	-1.76857
2.87333	57.227	-1.77804
2.87500	57.239	-1.78777
2.87667	57.252	-1.79714
2.87833	57.265	-1.80657
2.88000	57.277	-1.81631
2.88167	57.290	-1.82595
2.88333	57.303	-1.83571
2.88500	57.315	-1.84557
2.88667	57.328	-1.85505
2.88833	57.340	-1.86422
2.89000	57.353	-1.87336
2.89167	57.366	-1.88277
2.89333	57.377	-1.89220
2.89500	57.391	-1.90175
2.89667	57.404	-1.91128
2.89833	57.417	-1.92126
2.90000	57.430	-1.93182
2.90167	57.442	-1.94345
2.90333	57.455	-1.95541
2.90500	57.467	-1.96756
2.90667	57.480	-1.97988
2.90833	57.492	-1.99222
2.91000	57.505	-2.00509
2.91167	57.518	-2.01719
2.91333	57.530	-2.02930
2.91500	57.542	-2.04093
2.91667	57.554	-2.05198
2.91833	57.567	-2.06335
2.92000	57.579	-2.07454
2.92167	57.592	-2.08623
2.92333	57.603	-2.09798
2.92500	57.615	-2.11008
2.92667	57.628	-2.12266
2.92833	57.641	-2.13611
2.93000	57.654	-2.14912
2.93167	57.666	-2.16243
2.93333	57.679	-2.17619
2.93500	57.690	-2.18994
2.93667	57.704	-2.20360
2.93833	57.716	-2.21697
2.94000	57.728	-2.22959
2.94167	57.740	-2.24244
2.94333	57.752	-2.25447
2.94500	57.764	-2.26671
2.94667	57.777	-2.27890
2.94833	57.788	-2.29034
2.95000	57.801	-2.30146
2.95167	57.813	-2.31361
2.95333	57.824	-2.32635
2.95500	57.837	-2.33970
2.95667	57.848	-2.35420
2.95833	57.862	-2.36915
2.96000	57.873	-2.38446
2.96167	57.885	-2.40039
2.96333	57.896	-2.41694
2.96500	57.909	-2.43450
2.96667	57.921	-2.45197
2.96833	57.932	-2.46930
2.97000	57.945	-2.48719
2.97167	57.955	-2.50530
2.97333	57.967	-2.52331
2.97500	57.980	-2.54130
2.97667	57.989	-2.55951
2.97833	58.002	-2.57711
2.98000	58.014	-2.59363
2.98167	58.025	-2.60973
2.98333	58.036	-2.62621
2.98500	58.047	-2.64193
2.98667	58.058	-2.65648
2.98833	58.070	-2.67115
2.99000	58.081	-2.68540
2.99167	58.093	-2.69852
2.99333	58.105	-2.71129
2.99500	58.115	-2.72426
2.99667	58.127	-2.73650
2.99833	58.138	-2.74805
3.00000	58.149	-2.75770
3.00167	58.162	-2.76800
3.00333	58.174	-2.77831
3.00500	58.184	-2.78731
3.00667	58.197	-2.79674
3.00833	58.207	-2.80650
3.01000	58.219	-2.81663
3.01167	58.230	-2.82617
3.01333	58.243	-2.83673
3.01500	58.255	-2.84837
3.01667	58.265	-2.86063
3.01833	58.279	-2.87265
3.02000	58.290	-2.88557
3.02167	58.302	-2.89932
3.02333	58.313	-2.91445
3.02500	58.325	-2.93038
3.02667	58.337	-2.94781
3.02833	58.349	-2.96513
3.03000	58.361	-2.98341
3.03167	58.372	-3.00216
3.03333	58.383	-3.02198
3.03500	58.395	-3.04130
3.03667	58.405	-3.06053
3.03833	58.416	-3.07995
3.04000	58.428	-3.09955
3.04167	58.438	-3.11931
3.04333	58.449	-3.13979
3.04500	58.462	-3.16030
3.04667	58.472	-3.18035
3.04833	58.484	-3.20112
3.05000	58.493	-3.22212
3.05167	58.504	-3.24324
3.05333	58.515	-3.26386
3.05500	58.526	-3.28399
3.05667	58.536	-3.30395
3.05833	58.546	-3.32424
3.06000	58.557	-3.34455
3.06167	58.568	-3.36446
3.06333	58.579	-3.38423
3.06500	58.588	-3.40406
3.06667	58.598	-3.42304
3.06833	58.610	-3.44144
3.07000	58.620	-3.45900
3.07167	58.630	-3.47483
3.07333	58.640	-3.48879
3.07500	58.651	-3.50133
3.07667	58.661	-3.51234
3.07833	58.671	-3.52155
3.08000	58.682	-3.52888
3.08167	58.691	-3.53460
3.08333	58.703	-3.53964
3.08500	58.715	-3.54414
3.08667	58.726	-3.54792
3.08833	58.737	-3.55212
3.09000	58.748	-3.55612
3.09167	58.760	-3.56047
3.09333	58.772	-3.56615
3.09500	58.783	-3.57333
3.09667	58.794	-3.58180
3.09833	58.806	-3.59236
3.10000	58.818	-3.60351
3.10167	58.829	-3.61545
3.10333	58.841	-3.62820
3.10500	58.852	-3.64116
3.10667	58.864	-3.65436
3.10833	58.875	-3.66666
3.11000	58.888	-3.67843
3.11167	58.899	-3.68983
3.11333	58.911	-3.70159
3.11500	58.922	-3.71340
3.11667	58.935	-3.72681
3.11833	58.946	-3.74075
3.12000	58.957	-3.75556
3.12167	58.968	-3.77118
3.12333	58.980	-3.78799
3.12500	58.992	-3.80542
3.12667	59.003	-3.82365
3.12833	59.014	-3.84167
3.13000	59.025	-3.86090
3.13167	59.037	-3.88078
3.13333	59.049	-3.90178
3.13500	59.060	-3.92449
3.13667	59.071	-3.94778
3.13833	59.082	-3.97203
3.14000	59.093	-3.99660
3.14167	59.104	-4.02213
3.14333	59.114	-4.04835
3.14500	59.124	-4.07522
3.14667	59.135	-4.10183
3.14833	59.145	-4.12835
3.15000	59.155	-4.15435
3.15167	59.165	-4.18039
3.15333	59.176	-4.20546
3.15500	59.185	-4.22990
3.15667	59.195	-4.25287
3.15833	59.205	-4.27464
3.16000	59.216	-4.29507
3.16167	59.224	-4.31427
3.16333	59.234	-4.33246
3.16500	59.243	-4.34911
3.16667	59.253	-4.36493
3.16833	59.264	-4.38063
3.17000	59.274	-4.39681
3.17167	59.284	-4.41312
3.17333	59.293	-4.43008
3.17500	59.304	-4.44745
3.17667	59.313	-4.46560
3.17833	59.323	-4.48421
3.18000	59.334	-4.50366
3.18167	59.343	-4.52306
3.18333	59.352	-4.54262
3.18500	59.362	-4.56207
3.18667	59.372	-4.58304
3.18833	59.381	-4.60559
3.19000	59.392	-4.62852
3.19167	59.401	-4.65149
3.19333	59.411	-4.67515
3.19500	59.421	-4.69853
3.19667	59.430	-4.72118
3.19833	59.440	-4.74246
3.20000	59.448	-4.76241
3.20167	59.457	-4.78075
3.20333	59.468	-4.79756
3.20500	59.477	-4.81298
3.20667	59.486	-4.82858
3.20833	59.496	-4.84393
3.21000	59.506	-4.86027
3.21167	59.515	-4.87642
3.21333	59.526	-4.89307
3.21500	59.536	-4.90827
3.21667	59.544	-4.92083
3.21833	59.555	-4.92990
3.22000	59.564	-4.93357
3.22167	59.574	-4.93127
3.22333	59.585	-4.92186
3.22500	59.595	-4.90623
3.22667	59.607	-4.88490
3.22833	59.618	-4.85968
3.23000	59.630	-4.83043
3.23167	59.643	-4.79977
3.23333	59.656	-4.76769
3.23500	59.669	-4.73510
3.23667	59.683	-4.70336
3.23833	59.698	-4.67228
3.24000	59.713	-4.64255
3.24167	59.727	-4.61577
3.24333	59.742	-4.59199
3.24500	59.758	-4.57075
3.24667	59.774	-4.55257
3.24833	59.790	-4.53582
3.25000	59.807	-4.52070
3.25167	59.823	-4.50736
3.25333	59.839	-4.49594
3.25500	59.855	-4.48675
3.25667	59.873	-4.47877
3.25833	59.890	-4.47320
3.26000	59.906	-4.47007
3.26167	59.922	-4.46975
3.26333	59.940	-4.47274
3.26500	59.955	-4.47790
3.26667	59.971	-4.48343
3.26833	59.988	-4.48887
3.27000	60.005	-4.49283
3.27167	60.021	-4.49533
3.27333	60.037	-4.49584
3.27500	60.053	-4.49226
3.27667	60.070	-4.48630
3.27833	60.086	-4.47739
3.28000	60.102	-4.46567
3.28167	60.119	-4.45307
3.28333	60.136	-4.43911
3.28500	60.154	-4.42410
3.28667	60.171	-4.40794
3.28833	60.188	-4.39082
3.29000	60.206	-4.37305
3.29167	60.223	-4.35538
3.29333	60.242	-4.33631
3.29500	60.260	-4.31656
3.29667	60.277	-4.29617
3.29833	60.297	-4.27519
3.30000	60.315	-4.25385
3.30167	60.334	-4.23166
3.30333	60.353	-4.20922
3.30500	60.372	-4.18535
3.30667	60.391	-4.16128
3.30833	60.411	-4.13685
3.31000	60.430	-4.11360
3.31167	60.450	-4.09046
3.31333	60.470	-4.06942
3.31500	60.491	-4.04919
3.31667	60.511	-4.02980
3.31833	60.531	-4.01135
3.32000	60.552	-3.99379
3.32167	60.572	-3.97672
3.32333	60.593	-3.95857
3.32500	60.612	-3.94001
3.32667	60.632	-3.92003
3.32833	60.653	-3.89931
3.33000	60.674	-3.87766
3.33167	60.696	-3.85693
3.33333	60.717	-3.83563
3.33500	60.739	-3.81571
3.33667	60.760	-3.79659
3.33833	60.781	-3.78032
3.34000	60.802	-3.76561
3.34167	60.824	-3.75275
3.34333	60.845	-3.74216
3.34500	60.866	-3.73346
3.34667	60.888	-3.72609
3.34833	60.909	-3.71993
3.35000	60.930	-3.71567
3.35167	60.952	-3.71277
3.35333	60.972	-3.71134
3.35500	60.994	-3.71090
3.35667	61.014	-3.71247
3.35833	61.035	-3.71333
3.36000	61.054	-3.71406
3.36167	61.075	-3.71492
3.36333	61.096	-3.71503
3.36500	61.116	-3.71317
3.36667	61.135	-3.70933
3.36833	61.154	-3.70398
3.37000	61.174	-3.69660
3.37167	61.194	-3.68798
3.37333	61.214	-3.67773
3.37500	61.235	-3.66760
3.37667	61.255	-3.65635
3.37833	61.276	-3.64349
3.38000	61.296	-3.63073
3.38167	61.316	-3.61761
3.38333	61.336	-3.60450
3.38500	61.357	-3.59064
3.38667	61.377	-3.57707
3.38833	61.397	-3.56364
3.39000	61.418	-3.55045
3.39167	61.439	-3.53627
3.39333	61.460	-3.52231
3.39500	61.480	-3.50831
3.39667	61.500	-3.49313
3.39833	61.521	-3.47616
3.40000	61.542	-3.45779
3.40167	61.563	-3.43778
3.40333	61.584	-3.41463
3.40500	61.605	-3.38914
3.40667	61.628	-3.36149
3.40833	61.649	-3.33202
3.41000	61.671	-3.30116
3.41167	61.692	-3.26986
3.41333	61.715	-3.23812
3.41500	61.737	-3.20678
3.41667	61.760	-3.17580
3.41833	61.782	-3.14648
3.42000	61.805	-3.11794
3.42167	61.828	-3.08982
3.42333	61.851	-3.06123
3.42500	61.874	-3.03320
3.42667	61.897	-3.00549
3.42833	61.921	-2.97765
3.43000	61.944	-2.95040
3.43167	61.968	-2.92300
3.43333	61.992	-2.89597
3.43500	62.016	-2.86985
3.43667	62.040	-2.84453
3.43833	62.064	-2.82055
3.44000	62.087	-2.79728
3.44167	62.111	-2.77367
3.44333	62.136	-2.75007
3.44500	62.160	-2.72702
3.44667	62.185	-2.70315
3.44833	62.208	-2.67904
3.45000	62.231	-2.65464
3.45167	62.256	-2.63059
3.45333	62.280	-2.60717
3.45500	62.305	-2.58497
3.45667	62.329	-2.56347
3.45833	62.354	-2.54274
3.46000	62.379	-2.52237
3.46167	62.403	-2.50275
3.46333	62.427	-2.48344
3.46500	62.452	-2.46451
3.46667	62.475	-2.44598
3.46833	62.500	-2.42713
3.47000	62.524	-2.40846
3.47167	62.548	-2.38974
3.47333	62.573	-2.37102
3.47500	62.598	-2.35196
3.47667	62.622	-2.33342
3.47833	62.646	-2.31451
3.48000	62.670	-2.29539
3.48167	62.694	-2.27650
3.48333	62.719	-2.25632
3.48500	62.743	-2.23549
3.48667	62.767	-2.21429
3.48833	62.790	-2.19270
3.49000	62.816	-2.17069
3.49167	62.841	-2.14774
3.49333	62.865	-2.12399
3.49500	62.889	-2.09990
3.49667	62.914	-2.07511
3.49833	62.938	-2.04950
3.50000	62.963	-2.02289
3.50167	62.988	-1.99563
3.50333	63.012	-1.96663
3.50500	63.038	-1.93662
3.50667	63.063	-1.90592
3.50833	63.087	-1.87469
3.51000	63.114	-1.84284
3.51167	63.138	-1.81111
3.51333	63.164	-1.77983
3.51500	63.189	-1.75020
3.51667	63.215	-1.72164
3.51833	63.242	-1.69423
3.52000	63.267	-1.66882
3.52167	63.292	-1.64395
3.52333	63.317	-1.62029
3.52500	63.343	-1.59740
3.52667	63.370	-1.57473
3.52833	63.394	-1.55233
3.53000	63.421	-1.53066
3.53167	63.447	-1.50926
3.53333	63.472	-1.48815
3.53500	63.497	-1.46778
3.53667	63.522	-1.44825
3.53833	63.549	-1.42871
3.54000	63.574	-1.41009
3.54167	63.599	-1.39239
3.54333	63.625	-1.37498
3.54500	63.650	-1.35731
3.54667	63.675	-1.34090
3.54833	63.700	-1.32477
3.55000	63.725	-1.30885
3.55167	63.751	-1.29346
3.55333	63.776	-1.27848
3.55500	63.800	-1.26446
3.55667	63.825	-1.25090
3.55833	63.850	-1.23792
3.56000	63.874	-1.22530
3.56167	63.899	-1.21318
3.56333	63.923	-1.20081
3.56500	63.948	-1.18924
3.56667	63.970	-1.17768
3.56833	63.996	-1.16561
3.57000	64.020	-1.15407
3.57167	64.044	-1.14284
3.57333	64.068	-1.13208
3.57500	64.092	-1.12191
3.57667	64.116	-1.11196
3.57833	64.139	-1.10204
3.58000	64.162	-1.09241
3.58167	64.187	-1.08287
3.58333	64.211	-1.07313
3.58500	64.234	-1.06345
3.58667	64.257	-1.05413
3.58833	64.281	-1.04437
3.59000	64.303	-1.03474
3.59167	64.327	-1.02572
3.59333	64.349	-1.01681
3.59500	64.372	-1.00802
3.59667	64.396	-0.999855
3.59833	64.418	-0.991175
3.60000	64.441	-0.982815
3.60167	64.465	-0.974475
3.60333	64.487	-0.966399
3.60500	64.509	-0.958854
3.60667	64.530	-0.950845
3.60833	64.553	-0.942937
3.61000	64.576	-0.935350
3.61167	64.598	-0.927873
3.61333	64.620	-0.920248
3.61500	64.641	-0.912625
3.61667	64.664	-0.905338
3.61833	64.685	-0.897499
3.62000	64.708	-0.890100
3.62167	64.730	-0.882984
3.62333	64.751	-0.876099
3.62500	64.774	-0.869302
3.62667	64.794	-0.862716
3.62833	64.816	-0.856168
3.63000	64.838	-0.849908
3.63167	64.859	-0.844147
3.63333	64.880	-0.838274
3.63500	64.902	-0.832356
3.63667	64.924	-0.825826
3.63833	64.946	-0.819520
3.64000	64.966	-0.813160
3.64167	64.987	-0.807155
3.64333	65.009	-0.800954
3.64500	65.030	-0.795038
3.64667	65.050	-0.788963
3.64833	65.071	-0.783102
3.65000	65.092	-0.777864
3.65167	65.114	-0.772456
3.65333	65.134	-0.767397
3.65500	65.154	-0.762060
3.65667	65.175	-0.756616
3.65833	65.196	-0.750950
3.66000	65.215	-0.745824
3.66167	65.236	-0.740814
3.66333	65.256	-0.735477
3.66500	65.276	-0.730222
3.66667	65.297	-0.724873
3.66833	65.317	-0.719743
3.67000	65.337	-0.714342
3.67167	65.357	-0.709459
3.67333	65.378	-0.704840
3.67500	65.398	-0.700469
3.67667	65.419	-0.695491
3.67833	65.439	-0.691031
3.68000	65.459	-0.686534
3.68167	65.479	-0.682319
3.68333	65.498	-0.678238
3.68500	65.518	-0.673930
3.68667	65.539	-0.669639
3.68833	65.558	-0.664740
3.69000	65.578	-0.661023
3.69167	65.598	-0.656856
3.69333	65.617	-0.653039
3.69500	65.637	-0.648804
3.69667	65.656	-0.644892
3.69833	65.677	-0.640862
3.70000	65.696	-0.637264
3.70167	65.715	-0.633709
3.70333	65.734	-0.630344
3.70500	65.754	-0.626722
3.70667	65.773	-0.623173
3.70833	65.793	-0.619318
3.71000	65.813	-0.615554
3.71167	65.832	-0.611918
3.71333	65.851	-0.607993
3.71500	65.870	-0.604539
3.71667	65.888	-0.600859
3.71833	65.909	-0.597305
3.72000	65.927	-0.593496
3.72167	65.946	-0.589989
3.72333	65.966	-0.587103
3.72500	65.984	-0.584076
3.72667	66.003	-0.580544
3.72833	66.022	-0.577091
3.73000	66.041	-0.573748
3.73167	66.060	-0.570864
3.73333	66.079	-0.568202
3.73500	66.098	-0.565276
3.73667	66.117	-0.562555
3.73833	66.136	-0.560103
3.74000	66.155	-0.557400
3.74167	66.173	-0.555453
3.74333	66.192	-0.552992
3.74500	66.211	-0.551021
3.74667	66.229	-0.548041
3.74833	66.248	-0.545173
3.75000	66.267	-0.542305
3.75167	66.287	-0.539357
3.75333	66.305	-0.536314
3.75500	66.323	-0.533650
3.75667	66.341	-0.530923
3.75833	66.360	-0.528333
3.76000	66.379	-0.526030
3.76167	66.397	-0.523556
3.76333	66.415	-0.521199
3.76500	66.434	-0.518479
3.76667	66.452	-0.516441
3.76833	66.471	-0.514242
3.77000	66.489	-0.511902
3.77167	66.508	-0.508914
3.77333	66.526	-0.506586
3.77500	66.544	-0.504061
3.77667	66.562	-0.501957
3.77833	66.581	-0.500106
3.78000	66.600	-0.497840
3.78167	66.617	-0.495777
3.78333	66.636	-0.494035
3.78500	66.654	-0.492484
3.78667	66.672	-0.491061
3.78833	66.691	-0.490047
3.79000	66.709	-0.488249
3.79167	66.728	-0.486433
3.79333	66.744	-0.484463
3.79500	66.763	-0.482191
3.79667	66.781	-0.479682
3.79833	66.799	-0.476894
3.80000	66.817	-0.474613
3.80167	66.835	-0.472764
3.80333	66.853	-0.470703
3.80500	66.871	-0.468818
3.80667	66.888	-0.467311
3.80833	66.906	-0.465932
3.81000	66.924	-0.464884
3.81167	66.943	-0.463453
3.81333	66.960	-0.462126
3.81500	66.978	-0.460484
3.81667	66.996	-0.458472
3.81833	67.014	-0.456213
3.82000	67.032	-0.454596
3.82167	67.049	-0.452741
3.82333	67.067	-0.451264
3.82500	67.086	-0.450199
3.82667	67.103	-0.448822
3.82833	67.122	-0.447671
3.83000	67.140	-0.446155
3.83167	67.157	-0.444946
3.83333	67.174	-0.443362
3.83500	67.192	-0.442005
3.83667	67.211	-0.440305
3.83833	67.229	-0.438780
3.84000	67.246	-0.437637
3.84167	67.263	-0.436342
3.84333	67.281	-0.434952
3.84500	67.299	-0.433579
3.84667	67.317	-0.432236
3.84833	67.334	-0.431067
3.85000	67.351	-0.429771
3.85167	67.369	-0.428179
3.85333	67.386	-0.427359
3.85500	67.404	-0.426245
3.85667	67.421	-0.425543
3.85833	67.439	-0.424699
3.86000	67.456	-0.423597
3.86167	67.473	-0.422704
3.86333	67.492	-0.421484
3.86500	67.509	-0.419883
3.86667	67.526	-0.418948
3.86833	67.543	-0.417729
3.87000	67.561	-0.416452
3.87167	67.578	-0.415294
3.87333	67.597	-0.414124
3.87500	67.614	-0.413160
3.87667	67.631	-0.412163
3.87833	67.649	-0.411232
3.88000	67.666	-0.409984
3.88167	67.683	-0.408619
3.88333	67.700	-0.407559
3.88500	67.719	-0.407021
3.88667	67.736	-0.405799
3.88833	67.753	-0.404861
3.89000	67.770	-0.404158
3.89167	67.787	-0.402975
3.89333	67.805	-0.401904
3.89500	67.822	-0.401386
3.89667	67.839	-0.401522
3.89833	67.857	-0.401079
3.90000	67.874	-0.400753
3.90167	67.892	-0.400115
3.90333	67.910	-0.399478
3.90500	67.926	-0.398921
3.90667	67.944	-0.397575
3.90833	67.962	-0.396658
3.91000	67.979	-0.394940
3.91167	67.995	-0.393228
3.91333	68.013	-0.391627
3.91500	68.030	-0.390877
3.91667	68.048	-0.390164
3.91833	68.064	-0.390031
3.92000	68.081	-0.389973
3.92167	68.098	-0.389723
3.92333	68.116	-0.389395
3.92500	68.134	-0.389039
3.92667	68.151	-0.387760
3.92833	68.169	-0.386720
3.93000	68.185	-0.385629
3.93167	68.204	-0.384409
3.93333	68.220	-0.383514
3.93500	68.236	-0.382643
3.93667	68.254	-0.382219
3.93833	68.270	-0.381987
3.94000	68.288	-0.381721
3.94167	68.305	-0.381303
3.94333	68.322	-0.381184
3.94500	68.339	-0.381033
3.94667	68.356	-0.380322
3.94833	68.373	-0.379823
3.95000	68.391	-0.379413
3.95167	68.407	-0.378978
3.95333	68.425	-0.378697
3.95500	68.442	-0.378260
3.95667	68.458	-0.377466
3.95833	68.477	-0.376293
3.96000	68.494	-0.375709
3.96167	68.511	-0.375279
3.96333	68.529	-0.374906
3.96500	68.545	-0.373959
3.96667	68.562	-0.373223
3.96833	68.579	-0.372440
3.97000	68.596	-0.371695
3.97167	68.614	-0.371181
3.97333	68.629	-0.370425
3.97500	68.646	-0.370121
3.97667	68.664	-0.369943
3.97833	68.680	-0.369647
3.98000	68.698	-0.369455
3.98167	68.716	-0.369281
3.98333	68.732	-0.369125
3.98500	68.749	-0.368751
3.98667	68.767	-0.368539
3.98833	68.784	-0.368421
3.99000	68.801	-0.367909
3.99167	68.818	-0.367342
3.99333	68.834	-0.366635
3.99500	68.852	-0.366325
3.99667	68.868	-0.365735
3.99833	68.886	-0.365052
4.00000	68.902	-0.364458
4.00167	68.919	-0.364028
4.00333	68.936	-0.363408
4.00500	68.953	-0.363140
4.00667	68.970	-0.363032
4.00833	68.987	-0.362672
4.01000	69.005	-0.362411
4.01167	69.021	-0.362158
4.01333	69.039	-0.361934
4.01500	69.056	-0.361687
4.01667	69.073	-0.361396
4.01833	69.089	-0.361029
4.02000	69.106	-0.360781
4.02167	69.123	-0.360706
4.02333	69.140	-0.360586
4.02500	69.156	-0.360473
4.02667	69.172	-0.360331
4.02833	69.190	-0.360111
4.03000	69.208	-0.359893
4.03167	69.224	-0.359599
4.03333	69.241	-0.359393
4.03500	69.259	-0.359061
4.03667	69.275	-0.358638
4.03833	69.292	-0.358283
4.04000	69.309	-0.358007
4.04167	69.326	-0.357749
4.04333	69.343	-0.357474
4.04500	69.360	-0.357188
4.04667	69.377	-0.356896
4.04833	69.393	-0.356632
4.05000	69.411	-0.356305
4.05167	69.428	-0.356100
4.05333	69.444	-0.355781
4.05500	69.461	-0.355402
4.05667	69.478	-0.355118
4.05833	69.495	-0.354885
4.06000	69.511	-0.354669
4.06167	69.529	-0.354386
4.06333	69.545	-0.354181
4.06500	69.562	-0.354053
4.06667	69.580	-0.353939
4.06833	69.596	-0.353848
4.07000	69.613	-0.353755
4.07167	69.630	-0.353625
4.07333	69.647	-0.353455
4.07500	69.663	-0.353276
4.07667	69.681	-0.353110
4.07833	69.697	-0.353009
4.08000	69.714	-0.352918
4.08167	69.731	-0.352781
4.08333	69.748	-0.352679
4.08500	69.764	-0.352582
4.08667	69.782	-0.352491
4.08833	69.798	-0.352274
4.09000	69.815	-0.351978
4.09167	69.832	-0.351644
4.09333	69.849	-0.351259
4.09500	69.866	-0.350940
4.09667	69.882	-0.350674
4.09833	69.899	-0.350434
4.10000	69.916	-0.350264
4.10167	69.933	-0.350077
4.10333	69.950	-0.349952
4.10500	69.966	-0.349878
4.10667	69.983	-0.349809
4.10833	70.000	-0.349685
4.11000	70.016	-0.349569
4.11167	70.034	-0.349433
4.11333	70.051	-0.349291
4.11500	70.068	-0.349166
4.11667	70.085	-0.349026
4.11833	70.102	-0.348848
4.12000	70.118	-0.348670
4.12167	70.135	-0.348593
4.12333	70.151	-0.348538
4.12500	70.168	-0.348484
4.12667	70.184	-0.348438
4.12833	70.201	-0.348369
4.13000	70.218	-0.348288
4.13167	70.236	-0.348215
4.13333	70.252	-0.348131
4.13500	70.269	-0.348025
4.13667	70.286	-0.347862
4.13833	70.303	-0.347617
4.14000	70.320	-0.347486
4.14167	70.337	-0.347388
4.14333	70.353	-0.347299
4.14500	70.369	-0.347257
4.14667	70.387	-0.347195
4.14833	70.403	-0.347152
4.15000	70.420	-0.347112
4.15167	70.437	-0.347032
4.15333	70.453	-0.346942
4.15500	70.470	-0.346875
4.15667	70.488	-0.346809
4.15833	70.504	-0.346749
4.16000	70.521	-0.346663
4.16167	70.538	-0.346591
4.16333	70.555	-0.346522
4.16500	70.571	-0.346489
4.16667	70.588	-0.346473
4.16833	70.605	-0.346447
4.17000	70.622	-0.346419
4.17167	70.638	-0.346368
4.17333	70.655	-0.346293
4.17500	70.672	-0.346178
4.17667	70.688	-0.346050
4.17833	70.706	-0.345901
4.18000	70.721	-0.345772
4.18167	70.739	-0.345631
4.18333	70.755	-0.345533
4.18500	70.772	-0.345445
4.18667	70.788	-0.345351
4.18833	70.806	-0.345269
4.19000	70.824	-0.345200
4.19167	70.840	-0.345116
4.19333	70.857	-0.344953
4.19500	70.873	-0.344788
4.19667	70.890	-0.344649
4.19833	70.906	-0.344550
4.20000	70.925	-0.344486
4.20167	70.941	-0.344430
4.20333	70.958	-0.344400
4.20500	70.974	-0.344376
4.20667	70.991	-0.344355
4.20833	71.007	-0.344259
4.21000	71.025	-0.344209
4.21167	71.041	-0.344129
4.21333	71.057	-0.344058
4.21500	71.074	-0.344043
4.21667	71.090	-0.344026
4.21833	71.107	-0.344009
4.22000	71.124	-0.343965
4.22167	71.141	-0.343922
4.22333	71.158	-0.343863
4.22500	71.175	-0.343811
4.22667	71.191	-0.343784
4.22833	71.208	-0.343764
4.23000	71.225	-0.343745
4.23167	71.242	-0.343721
4.23333	71.258	-0.343690
4.23500	71.276	-0.343664
4.23667	71.292	-0.343634
4.23833	71.308	-0.343575
4.24000	71.326	-0.343503
4.24167	71.343	-0.343439
4.24333	71.359	-0.343394
4.24500	71.375	-0.343372
4.24667	71.392	-0.343350
4.24833	71.409	-0.343306
4.25000	71.426	-0.343275
4.25167	71.443	-0.343245
4.25333	71.459	-0.343217
4.25500	71.476	-0.343194
4.25667	71.494	-0.343164
4.25833	71.509	-0.343147
4.26000	71.527	-0.343124
4.26167	71.543	-0.343097
4.26333	71.559	-0.343063
4.26500	71.575	-0.343007
4.26667	71.592	-0.342940
4.26833	71.609	-0.342894
4.27000	71.626	-0.342871
4.27167	71.643	-0.342850
4.27333	71.660	-0.342808
4.27500	71.677	-0.342781
4.27667	71.694	-0.342758
4.27833	71.710	-0.342738
4.28000	71.728	-0.342715
4.28167	71.744	-0.342690
4.28333	71.760	-0.342661
4.28500	71.777	-0.342627
4.28667	71.794	-0.342599
4.28833	71.811	-0.342568
4.29000	71.827	-0.342541
4.29167	71.843	-0.342518
4.29333	71.860	-0.342492
4.29500	71.878	-0.342470
4.29667	71.895	-0.342445
4.29833	71.911	-0.342419
4.30000	71.928	-0.342393
4.30167	71.944	-0.342368
4.30333	71.961	-0.342349
4.30500	71.977	-0.342335
4.30667	71.994	-0.342321
4.30833	72.011	-0.342310
4.31000	72.028	-0.342296
4.31167	72.045	-0.342282
4.31333	72.061	-0.342265
4.31500	72.077	-0.342244
4.31667	72.094	-0.342220
4.31833	72.111	-0.342180
4.32000	72.128	-0.342136
4.32167	72.145	-0.342094
4.32333	72.161	-0.342067
4.32500	72.178	-0.342043
4.32667	72.194	-0.342020
4.32833	72.211	-0.341995
4.33000	72.228	-0.341971
4.33167	72.245	-0.341950
4.33333	72.262	-0.341928
4.33500	72.278	-0.341907
4.33667	72.295	-0.341885
4.33833	72.312	-0.341861
4.34000	72.329	-0.341837
4.34167	72.345	-0.341815
4.34333	72.362	-0.341792
4.34500	72.379	-0.341770
4.34667	72.396	-0.341746
4.34833	72.412	-0.341720
4.35000	72.428	-0.341693
4.35167	72.445	-0.341666
4.35333	72.462	-0.341643
4.35500	72.478	-0.341620
4.35667	72.495	-0.341596
4.35833	72.512	-0.341574
4.36000	72.529	-0.341552
4.36167	72.546	-0.341531
4.36333	72.563	-0.341507
4.36500	72.578	-0.341486
4.36667	72.595	-0.341465
4.36833	72.612	-0.341449
4.37000	72.628	-0.341428
4.37167	72.645	-0.341409
4.37333	72.662	-0.341396
4.37500	72.678	-0.341384
4.37667	72.695	-0.341374
4.37833	72.712	-0.341363
4.38000	72.729	-0.341349
4.38167	72.746	-0.341332
4.38333	72.763	-0.341320
4.38500	72.778	-0.341310
4.38667	72.796	-0.341297
4.38833	72.813	-0.341279
4.39000	72.829	-0.341259
4.39167	72.847	-0.341240
4.39333	72.862	-0.341221
4.39500	72.879	-0.341200
4.39667	72.896	-0.341177
4.39833	72.912	-0.341153
4.40000	72.930	-0.341133
4.40167	72.947	-0.341117
4.40333	72.964	-0.341102
4.40500	72.980	-0.341089
4.40667	72.996	-0.341076
4.40833	73.014	-0.341065
4.41000	73.031	-0.341052
4.41167	73.047	-0.341038
4.41333	73.064	-0.341022
4.41500	73.080	-0.341003
4.41667	73.097	-0.340983
4.41833	73.115	-0.340965
4.42000	73.131	-0.340946
4.42167	73.147	-0.340927
4.42333	73.164	-0.340908
4.42500	73.180	-0.340892
4.42667	73.198	-0.340878
4.42833	73.215	-0.340864
4.43000	73.231	-0.340850
4.43167	73.248	-0.340838
4.43333	73.264	-0.340828
4.43500	73.282	-0.340823
4.43667	73.298	-0.340815
4.43833	73.315	-0.340803
4.44000	73.331	-0.340790
4.44167	73.347	-0.340776
4.44333	73.364	-0.340763
4.44500	73.381	-0.340756
4.44667	73.398	-0.340747
4.44833	73.414	-0.340733
4.45000	73.431	-0.340719
4.45167	73.448	-0.340702
4.45333	73.466	-0.340686
4.45500	73.481	-0.340670
4.45667	73.498	-0.340655
4.45833	73.515	-0.340639
4.46000	73.531	-0.340628
4.46167	73.547	-0.340620
4.46333	73.563	-0.340615
4.46500	73.580	-0.340608
4.46667	73.597	-0.340602
4.46833	73.614	-0.340599
4.47000	73.631	-0.340596
4.47167	73.648	-0.340586
4.47333	73.664	-0.340575
4.47500	73.682	-0.340565
4.47667	73.698	-0.340556
4.47833	73.715	-0.340549
4.48000	73.731	-0.340540
4.48167	73.748	-0.340529
4.48333	73.764	-0.340512
4.48500	73.781	-0.340493
4.48667	73.798	-0.340475
4.48833	73.814	-0.340462
4.49000	73.831	-0.340451
4.49167	73.847	-0.340438
4.49333	73.865	-0.340427
4.49500	73.881	-0.340414
4.49667	73.897	-0.340400
4.49833	73.915	-0.340390
4.50000	73.931	-0.340382
4.50167	73.948	-0.340374
4.50333	73.965	-0.340366
4.50500	73.981	-0.340358
4.50667	73.998	-0.340348
4.50833	74.014	-0.340341
4.51000	74.031	-0.340333
4.51167	74.048	-0.340326
4.51333	74.064	-0.340321
4.51500	74.081	-0.340315
4.51667	74.098	-0.340314
4.51833	74.114	-0.340309
4.52000	74.131	-0.340304
4.52167	74.149	-0.340303
4.52333	74.165	-0.340301
4.52500	74.182	-0.340297
4.52667	74.199	-0.340291
4.52833	74.217	-0.340282
4.53000	74.233	-0.340269
4.53167	74.249	-0.340255
4.53333	74.265	-0.340247
4.53500	74.282	-0.340242
4.53667	74.299	-0.340240
4.53833	74.315	-0.340234
4.54000	74.332	-0.340234
4.54167	74.350	-0.340232
4.54333	74.366	-0.340234
4.54500	74.382	-0.340233
4.54667	74.399	-0.340235
4.54833	74.416	-0.340237
4.55000	74.432	-0.340238
4.55167	74.449	-0.340239
4.55333	74.465	-0.340239
4.55500	74.483	-0.340238
4.55667	74.499	-0.340233
4.55833	74.516	-0.340228
4.56000	74.532	-0.340218
4.56167	74.549	-0.340209
4.56333	74.566	-0.340192
4.56500	74.583	-0.340180
4.56667	74.599	-0.340171
4.56833	74.616	-0.340162
4.57000	74.632	-0.340154
4.57167	74.650	-0.340146
4.57333	74.666	-0.340135
4.57500	74.683	-0.340125
4.57667	74.700	-0.340117
4.57833	74.716	-0.340110
4.58000	74.733	-0.340102
4.58167	74.749	-0.340094
4.58333	74.766	-0.340084
4.58500	74.783	-0.340077
4.58667	74.799	-0.340071
4.58833	74.816	-0.340068
4.59000	74.832	-0.340070
4.59167	74.848	-0.340076
4.59333	74.866	-0.340080
4.59500	74.883	-0.340086
4.59667	74.899	-0.340090
4.59833	74.916	-0.340091
4.60000	74.932	-0.340094
4.60167	74.949	-0.340094
4.60333	74.966	-0.340089
4.60500	74.982	-0.340081
4.60667	74.999	-0.340072
4.60833	75.016	-0.340068
4.61000	75.033	-0.340064
4.61167	75.049	-0.340059
4.61333	75.065	-0.340054
4.61500	75.082	-0.340050
4.61667	75.099	-0.340046
4.61833	75.115	-0.340045
4.62000	75.131	-0.340046
4.62167	75.148	-0.340050
4.62333	75.165	-0.340050
4.62500	75.182	-0.340051
4.62667	75.199	-0.340051
4.62833	75.217	-0.340052
4.63000	75.233	-0.340054
4.63167	75.249	-0.340055
4.63333	75.265	-0.340057
4.63500	75.282	-0.340059
4.63667	75.300	-0.340064
4.63833	75.316	-0.340070
4.64000	75.333	-0.340078
4.64167	75.350	-0.340083
4.64333	75.367	-0.340089
4.64500	75.383	-0.340090
4.64667	75.400	-0.340087
4.64833	75.417	-0.340082
4.65000	75.432	-0.340077
4.65167	75.449	-0.340071
4.65333	75.466	-0.340066
4.65500	75.482	-0.340063
4.65667	75.499	-0.340063
4.65833	75.516	-0.340068
4.66000	75.533	-0.340077
4.66167	75.549	-0.340091
4.66333	75.567	-0.340111
4.66500	75.583	-0.340123
4.66667	75.599	-0.340135
4.66833	75.616	-0.340144
4.67000	75.632	-0.340154
4.67167	75.650	-0.340169
4.67333	75.666	-0.340179
4.67500	75.684	-0.340185
4.67667	75.700	-0.340189
4.67833	75.718	-0.340192
4.68000	75.733	-0.340190
4.68167	75.750	-0.340187
4.68333	75.766	-0.340187
4.68500	75.783	-0.340186
4.68667	75.801	-0.340187
4.68833	75.817	-0.340189
4.69000	75.833	-0.340194
4.69167	75.850	-0.340200
4.69333	75.867	-0.340211
4.69500	75.884	-0.340223
4.69667	75.900	-0.340234
4.69833	75.917	-0.340239
4.70000	75.934	-0.340243
4.70167	75.951	-0.340246
4.70333	75.967	-0.340248
4.70500	75.984	-0.340254
4.70667	76.001	-0.340262
4.70833	76.017	-0.340269
4.71000	76.034	-0.340277
4.71167	76.051	-0.340288
4.71333	76.069	-0.340302
4.71500	76.084	-0.340316
4.71667	76.102	-0.340329
4.71833	76.118	-0.340340
4.72000	76.135	-0.340342
4.72167	76.151	-0.340339
4.72333	76.168	-0.340340
4.72500	76.184	-0.340342
4.72667	76.201	-0.340343
4.72833	76.218	-0.340343
4.73000	76.234	-0.340347
4.73167	76.250	-0.340358
4.73333	76.268	-0.340371
4.73500	76.285	-0.340385
4.73667	76.300	-0.340397
4.73833	76.318	-0.340407
4.74000	76.334	-0.340412
4.74167	76.351	-0.340417
4.74333	76.367	-0.340419
4.74500	76.384	-0.340415
4.74667	76.401	-0.340404
4.74833	76.418	-0.340396
4.75000	76.434	-0.340394
4.75167	76.450	-0.340394
4.75333	76.468	-0.340399
4.75500	76.484	-0.340407
4.75667	76.501	-0.340417
4.75833	76.518	-0.340429
4.76000	76.535	-0.340441
4.76167	76.551	-0.340449
4.76333	76.567	-0.340456
4.76500	76.585	-0.340461
4.76667	76.601	-0.340467
4.76833	76.618	-0.340475
4.77000	76.634	-0.340480
4.77167	76.652	-0.340487
4.77333	76.667	-0.340497
4.77500	76.684	-0.340510
4.77667	76.702	-0.340524
4.77833	76.720	-0.340536
4.78000	76.736	-0.340549
4.78167	76.752	-0.340557
4.78333	76.768	-0.340562
4.78500	76.785	-0.340566
4.78667	76.802	-0.340571
4.78833	76.818	-0.340577
4.79000	76.834	-0.340582
4.79167	76.851	-0.340592
4.79333	76.868	-0.340602
4.79500	76.886	-0.340615
4.79667	76.902	-0.340630
4.79833	76.917	-0.340645
4.80000	76.936	-0.340660
4.80167	76.952	-0.340672
4.80333	76.969	-0.340680
4.80500	76.986	-0.340684
4.80667	77.002	-0.340690
4.80833	77.019	-0.340694
4.81000	77.035	-0.340701
4.81167	77.052	-0.340709
4.81333	77.068	-0.340717
4.81500	77.085	-0.340723
4.81667	77.101	-0.340732
4.81833	77.117	-0.340743
4.82000	77.135	-0.340757
4.82167	77.151	-0.340770
4.82333	77.167	-0.340780
4.82500	77.184	-0.340790
4.82667	77.201	-0.340803
4.82833	77.218	-0.340817
4.83000	77.234	-0.340834
4.83167	77.251	-0.340847
4.83333	77.268	-0.340856
4.83500	77.285	-0.340864
4.83667	77.302	-0.340874
4.83833	77.318	-0.340885
4.84000	77.335	-0.340894
4.84167	77.351	-0.340901
4.84333	77.368	-0.340908
4.84500	77.384	-0.340920
4.84667	77.402	-0.340931
4.84833	77.418	-0.340945
4.85000	77.434	-0.340957
4.85167	77.451	-0.340969
4.85333	77.468	-0.340979
4.85500	77.484	-0.340988
4.85667	77.501	-0.340993
4.85833	77.518	-0.340993
4.86000	77.534	-0.340992
4.86167	77.551	-0.340992
4.86333	77.569	-0.340996
4.86500	77.585	-0.341003
4.86667	77.601	-0.341009
4.86833	77.618	-0.341016
4.87000	77.634	-0.341028
4.87167	77.651	-0.341042
4.87333	77.668	-0.341054
4.87500	77.685	-0.341063
4.87667	77.701	-0.341069
4.87833	77.719	-0.341073
4.88000	77.736	-0.341077
4.88167	77.752	-0.341082
4.88333	77.769	-0.341090
4.88500	77.785	-0.341100
4.88667	77.801	-0.341110
4.88833	77.819	-0.341119
4.89000	77.835	
4.89167	77.852	
4.89333	77.869	
4.89500	77.886	
4.89667	77.903	
4.89833	77.918	
4.90000	77.935	
4.90167	77.952	
4.90333	77.969	
4.90500	77.985	
4.90667	78.003	
4.90833	78.019	
4.91000	78.036	
4.91167	78.052	
4.91333	78.069	
4.91500	78.086	
4.91667	78.103	
4.91833	78.120	
4.92000	78.136	
4.92167	78.153	
4.92333	78.170	
4.92500	78.185	
4.92667	78.201	
4.92833	78.218	
4.93000	78.234	
4.93167	78.252	
4.93333	78.268	
4.93500	78.286	
4.93667	78.303	
4.93833	78.320	
4.94000		
4.94167		
4.94333		
4.94500		
4.94667		

